time (s)	magX	magY	magZ
8606.857235	297.583282	-125.133842	-576.521362
8606.860566	300.213318	-126.478081	-562.085388
8606.863901	302.258911	-127.646988	-548.876709
8606.867232	304.655182	-129.458786	-534.791382
8606.870570	305.999420	-130.627701	-520.998291
8606.873901	308.161896	-131.095261	-506.796021
8606.877238	308.863251	-132.322617	-492.535339
8606.880572	309.330811	-132.965515	-478.099335
8606.883907	309.973694	-133.608414	-465.884247
8606.887248	309.973694	-133.900635	-452.792511
8606.890626	309.506134	-134.017532	-440.343658
8606.893900	309.038574	-134.251312	-426.959656
8606.897231	307.285187	-134.309769	-414.393890
8606.900561	306.642303	-134.017532	-402.529510
8606.903902	305.648743	-133.900635	-390.197540
8606.907232	304.479828	-133.666855	-379.034454
8606.910563	302.726471	-133.316193	-368.163635
8606.913895	301.382233	-132.497955	-355.480988
8606.917231	299.628876	-131.621277	-345.311523
8606.920564	297.700165	-130.919937	-334.382233
8606.923894	295.888367	-130.101700	-324.446503
8606.927232	293.725891	-128.991226	-314.043243
8606.930590	291.563416	-126.945641	-304.575104
8606.933897	289.459381	-125.835182	-294.814728
8606.937231	286.946228	-124.783165	-285.288147
8606.940559	284.549957	-123.380478	-276.871979
8606.943895	282.153717	-121.919334	-267.812958
8606.947229	279.406769	-120.750435	-259.455292
8606.950561	277.594971	-118.938629	-251.682068
8606.953896	274.438904	-117.828171	-244.376389
8606.957235	272.159576	-116.074806	-236.486267
8606.960598	269.003510	-114.087669	-229.180588
8606.963896	266.315002	-113.152542	-221.290466
8606.967229	264.152527	-111.632957	-214.510818
8606.970558	261.347168	-110.639389	-208.315613
8606.973911	258.483337	-108.535355	-201.185272
8606.977221	255.677979	-107.191116	-194.873169
8606.980563	252.346573	-106.139099	-189.028625
8606.983892	249.950333	-105.028633	-182.891861
8606.987225	247.495621	-103.684395	-177.398010
8606.990559	244.456451	-102.398598	-171.904144
8606.993888	241.300400	-101.405022	-167.696075
8606.997225	239.079483	-100.177673	-161.909988
8607.000554	236.215652	-99.008759	-157.059021
8607.003887	233.468735	-97.313850	-151.974274
8607.007223	230.078903	-96.670944	-147.240204
8607.010552	227.273529	-95.911163	-143.324371
8607.013888	224.643478	-94.391586	-138.064285
8607.017217	222.364105	-94.157799	-134.557571
8607.021001	219.441849	-92.755112	-129.765045
8607.024341	216.753357	-92.170662	-126.901222
8607.027651	213.889542	-91.235535	-121.874931
8607.030977	211.259491	-89.832840	-118.835777
8607.034356	208.921677	-89.482170	-115.095276
8607.037644	206.466980	-87.962593	-112.114555
8607.040968	204.012268	-87.670364	-108.666283
8607.044310	201.265350	-86.735237	-105.627121
8607.047647	198.927521	-85.624779	-102.354179
8607.050976	196.589706	-84.631210	-99.431915
8607.054330	194.076569	-83.754524	-96.275864
8607.057674	192.381638	-82.702507	-93.528931
8607.060998	189.926941	-81.299820	-91.600235
8607.064320	187.939804	-80.130913	-88.677971
8607.067647	185.952667	-80.072464	-85.872589
8607.070980	183.731735	-78.786667	-84.703682
8607.074309	182.036819	-77.500870	-80.904739
8607.077657	180.225021	-76.857979	-79.268272
8607.080975	178.530090	-76.156631	-77.690239
8607.084299	176.952072	-74.812386	-74.592636
8607.087635	175.023376	-74.169495	-72.839279
8607.090996	173.796021	-73.643478	-71.319695
8607.094353	171.224426	-72.708359	-69.157219
8607.097697	170.230850	-71.656342	-68.046753
8607.100974	168.711288	-71.188774	-66.234947
8607.104304	167.425476	-70.019875	-63.955582
8607.107638	166.081238	-69.669197	-62.436005
8607.110977	164.503220	-68.558731	-61.091759
8607.114338	163.042084	-68.500290	-59.572182
8607.117633	161.990051	-67.389832	-58.461716
8607.120976	160.938049	-66.513153	-57.701927
8607.124326	158.775574	-65.753357	-56.007011
8607.127649	157.840439	-65.636467	-54.896553
8607.130988	156.729980	-64.818230	-53.844536
8607.134307	156.087082	-64.876678	-52.091171
8607.137632	154.742844	-64.233780	-51.565163
8607.140971	153.281708	-63.649330	-50.396263
8607.144305	151.879013	-63.240208	-49.168907
8607.147635	150.768555	-62.889538	-48.000000
8607.150961	150.300995	-61.895969	-48.000000
8607.154301	149.132080	-62.129749	-47.006432
8607.157680	148.080078	-61.603741	-46.188194
8607.160982	146.794266	-61.428406	-45.136177
8607.164329	145.976028	-60.843952	-43.791931
8607.167679	144.748688	-60.843952	-42.798363
8607.170958	144.047348	-60.610172	-42.506134
8607.174295	143.345993	-60.142609	-41.512566
8607.177638	142.469315	-59.675045	-40.928116
8607.180963	141.709534	-59.675045	-40.752777
8607.184296	141.008194	-59.265926	-40.285217
8607.187629	139.897720	-59.149036	-40.109879
8607.190958	139.079483	-58.739918	-38.999420
8607.194314	138.261246	-58.447689	-38.414963
8607.197655	137.735245	-58.097019	-37.713615
8607.200991	137.969025	-58.330799	-37.772064
8607.204314	137.443024	-57.980129	-36.661598
8607.207664	136.566330	-57.804790	-36.252483
8607.210967	136.215668	-57.278786	-35.200466
8607.214290	135.572769	-56.811222	-35.317360
8607.217619	135.163635	-56.752777	-34.732903
8607.220979	134.929871	-56.635887	-34.732903
8607.224289	134.754517	-56.285213	-34.616013
8607.227621	134.403870	-55.642315	-34.148453
8607.230978	133.644073	-55.057861	-34.090004
8607.234312	134.053192	-55.700760	-33.622444
8607.237689	133.819397	-55.583870	-33.505554
8607.240957	133.585617	-54.707188	-33.856224
8607.244289	133.527176	-54.531853	-32.511982
8607.247618	133.468735	-55.116306	-32.979546
8607.250996	132.708954	-54.999416	-33.037987
8607.254291	132.884277	-54.707188	-33.154881
8607.257621	132.825836	-54.882526	-33.037987
8607.260953	132.533600	-54.707188	-32.745762
8607.264319	133.001175	-54.298073	-33.330215
8607.267646	133.351837	-54.882526	-33.622444
8607.270975	133.468735	-55.408535	-33.447105
8607.274342	133.410278	-54.940971	-34.265343
8607.278038	133.351837	-55.408535	-33.622444
8607.281373	133.351837	-55.174751	-33.505554
8607.284707	133.644073	-55.291641	-33.973114
8607.288072	133.176514	-55.700760	-33.973114
8607.291399	133.819397	-55.876095	-33.680885
8607.294345	133.410278	-56.109879	-34.499123
8607.297647	134.403870	-56.109879	-34.616013
8607.301019	134.286957	-56.694332	-34.791351
8607.304714	134.929871	-56.811222	-35.317360
8607.308060	134.812973	-56.694332	-35.843365
8607.311367	134.754517	-57.045002	-35.551140
8607.314726	135.397430	-57.103447	-35.551140
8607.318063	135.864990	-57.746346	-36.369373
8607.321445	136.566330	-57.921684	-36.778488
8607.324791	136.332550	-58.155464	-36.778488
8607.328064	137.033890	-58.447689	-37.538284
8607.331369	137.384567	-58.856812	-37.596725
8607.334702	138.085907	-58.681473	-37.830513
8607.338095	138.728806	-59.032143	-38.414963
8607.341393	138.962585	-59.149036	-39.174751
8607.344721	140.131500	-59.441265	-39.876099
8607.348109	140.073059	-59.324375	-39.642319
8607.351465	141.592636	-60.025719	-40.226768
8607.354689	142.293976	-60.376389	-40.811218
8607.358031	143.112213	-60.843952	-41.746346
8607.361385	144.164230	-60.727062	-42.038574
8607.364711	144.514908	-60.610172	-42.856812
8607.368056	145.976028	-61.545296	-43.090591
8607.371469	147.320282	-61.603741	-44.493279
8607.374800	147.963181	-61.954411	-44.960838
8607.378039	148.839859	-62.246639	-46.246643
8607.381403	149.716537	-61.720631	-47.006432
8607.384698	151.469894	-63.181767	-48.292229
8607.388057	152.346573	-63.590885	-49.636467
8607.391391	154.099945	-64.116890	-50.863823
8607.394816	154.625946	-64.292229	-51.448273
8607.398133	155.794861	-64.993576	-52.149620
8607.401475	157.255997	-65.636467	-54.312096
8607.404710	158.541794	-66.279373	-54.838104
8607.408031	159.652252	-66.980713	-55.890121
8607.411362	161.113388	-68.383400	-57.059029
8607.414731	162.866745	-68.792519	-58.403275
8607.418147	164.678543	-69.435417	-59.572182
8607.421436	165.379898	-70.487434	-61.851555
8607.424798	166.665695	-70.545876	-63.838692
8607.428033	168.652832	-71.890121	-66.234947
8607.431363	170.055527	-72.474579	-67.403854
8607.434694	171.867325	-73.643478	-68.572762
8607.438059	173.328461	-73.935707	-70.969025
8607.441410	175.198715	-74.987724	-72.839279
8607.444766	176.484512	-76.098183	-74.943306
8607.448120	177.594971	-77.150200	-76.696671
8607.451418	180.400345	-78.552887	-78.450035
8607.454697	181.452377	-78.962006	-79.852722
8607.458022	183.965515	-79.663353	-81.956757
8607.461357	185.192871	-80.481590	-84.820572
8607.464715	187.180008	-81.416710	-86.924614
8607.468140	189.751602	-82.527176	-88.794861
8607.471449	191.504974	-83.403854	-92.009354
8607.474766	193.375214	-84.105202	-94.990067
8607.478029	195.245468	-84.806541	-97.970779
8607.481384	197.700180	-86.150787	-100.542374
8607.484683	200.154877	-86.618347	-103.464645
8607.488048	202.609589	-87.787254	-106.737579
8607.491385	204.772064	-88.254822	-109.718292
8607.494766	207.343658	-89.248390	-112.874344
8607.498093	209.798355	-90.300400	-116.790176
8607.501393	212.545288	-91.060196	-119.011108
8607.504694	214.941559	-91.761543	-123.745186
8607.508017	217.571609	-92.696663	-127.777916
8607.511413	220.376984	-93.924019	-132.745773
8607.514711	222.831665	-94.800697	-136.427811
8607.518098	225.753937	-95.794273	-141.161896
8607.521452	228.150208	-97.138512	-144.902390
8607.524808	230.897125	-98.248978	-150.162460
8607.528014	233.819397	-99.300987	-154.838104
8607.531355	236.391006	-100.586784	-159.864395
8607.534682	239.605484	-101.288132	-166.176498
8607.538041	241.709534	-103.158386	-171.670364
8607.541374	244.690247	-103.859726	-177.573349
8607.544793	247.495621	-105.262413	-183.184097
8607.548099	249.891861	-106.957329	-189.554642
8607.551393	252.872604	-107.950897	-195.574509
8607.554710	255.970200	-109.762711	-201.243713
8607.558021	257.957336	-110.931618	-208.958496
8607.561375	261.113403	-112.568085	-216.147278
8607.564701	264.210968	-114.146103	-222.751587
8607.568126	266.841034	-115.081230	-229.706589
8607.571447	269.529510	-117.185265	-237.713623
8607.574746	272.334900	-118.061951	-245.019287
8607.578021	274.322052	-119.756866	-253.084747
8607.581799	276.484497	-120.808876	-260.741089
8607.585144	279.815887	-122.854462	-268.338989
8607.588045	281.627686	-123.789589	-277.456451
8607.591840	283.790161	-125.250725	-285.814148
8607.594751	286.069550	-126.010521	-295.223816
8607.598099	289.050262	-127.004089	-304.107544
8607.601766	291.563416	-127.939217	-313.809448
8607.605168	293.258331	-129.517242	-324.095856
8607.608519	295.303894	-130.686142	-334.440674
8607.611395	297.758606	-130.861481	-344.084167
8607.614800	299.570435	-131.562820	-354.954987
8607.618089	301.557587	-132.497955	-366.877838
8607.621786	302.726471	-132.673294	-377.456451
8607.625130	304.129150	-133.725311	-389.379303
8607.628456	305.707184	-133.783752	-399.841034
8607.631893	307.109863	-134.309769	-411.880768
8607.635191	308.687897	-133.783752	-424.212738
8607.638513	308.571014	-134.075989	-437.070709
8607.641809	308.921692	-134.426651	-449.578003
8607.645139	309.447693	-134.017532	-463.137329
8607.648513	309.447693	-133.316193	-475.995300
8607.651841	309.272339	-133.316193	-489.496185
8607.654803	309.213898	-132.614853	-503.815308
8607.658538	307.518982	-131.679718	-518.134460
8607.661841	305.590302	-131.212158	-531.752258
8607.665161	304.479828	-130.160141	-545.486877
8607.668576	302.551147	-129.049683	-560.215149
8607.671859	299.979523	-128.406784	-575.001770
8607.675209	296.531250	-126.068962	-590.197571
8607.678531	293.141449	-124.900063	-604.282898
8607.681831	289.225586	-124.140266	-617.783752
8607.685168	285.075989	-122.503799	-632.161316
8607.688513	280.400360	-120.575096	-646.421997
8607.691850	275.374054	-119.055527	-661.091797
8607.695180	268.477509	-116.776146	-674.475769
8607.698536	262.808289	-114.730568	-688.268860
8607.701894	256.087097	-112.801865	-702.471069
8607.705177	249.015198	-110.464050	-714.978394
8607.708539	241.592636	-107.249557	-726.784363
8607.711844	233.760971	-104.502632	-739.350098
8607.715212	225.227936	-101.931030	-751.097595
8607.718554	216.285797	-98.891869	-762.962036
8607.721924	207.109879	-95.034477	-773.131531
8607.725266	197.115723	-91.527756	-784.236145
8607.728662	186.829346	-87.378136	-794.639404
8607.731947	176.893631	-83.111633	-803.873779
8607.735260	166.256577	-78.552887	-813.517334
8607.738594	155.035065	-74.227936	-821.056702
8607.741917	143.404434	-69.084747	-828.654602
8607.745254	132.475159	-63.941559	-834.966675
8607.748604	119.967857	-58.564583	-841.045044
8607.751891	108.395676	-52.895386	-846.305115
8607.755212	95.713028	-46.758621	-851.331482
8607.758524	83.322624	-41.089424	-855.071960
8607.761819	70.113968	-35.011105	-858.753967
8607.765178	56.905319	-27.880772	-860.682678
8607.768547	44.105785	-21.685564	-862.143860
8607.771882	31.189363	-15.256575	-862.845154
8607.775212	17.337814	-7.308007	-863.429565
8607.778522	2.901812	-0.294564	-863.254272
8607.781915	-11.475746	6.017533	-860.156677
8607.785223	-24.742840	13.030976	-857.818848
8607.788600	-37.951488	19.459965	-854.604370
8607.791914	-51.686150	26.882523	-850.279358
8607.795205	-65.829926	33.077732	-844.668579
8607.798595	-78.921684	39.798946	-838.999390
8607.801879	-92.539452	46.286385	-832.921143
8607.805226	-105.689659	52.306252	-825.907654
8607.808590	-119.190536	58.735241	-817.783752
8607.811895	-131.464050	64.112221	-809.835144
8607.815231	-143.679123	69.722969	-800.483948
8607.818543	-155.368210	75.099945	-791.132690
8607.821854	-167.583282	80.009354	-779.794312
8607.825164	-178.921692	85.561668	-769.274109
8607.828488	-189.850967	90.529518	-758.169556
8607.831917	-200.429565	94.737587	-746.305115
8607.835239	-209.897720	99.120979	-734.382263
8607.838554	-220.008759	103.095268	-723.102295
8607.841953	-228.775558	106.835770	-711.179504
8607.845246	-237.016357	110.342499	-698.146118
8607.848611	-244.497375	114.083000	-684.879028
8607.851924	-252.270599	117.063705	-672.547058
8607.855238	-259.634735	120.278206	-658.870850
8607.858574	-266.414368	122.966698	-645.720642
8607.861885	-272.258911	125.187614	-632.453552
8607.865183	-277.986572	128.226776	-618.952698
8607.868488	-282.311523	131.032150	-605.919373
8607.871835	-287.746948	132.610168	-592.418518
8607.875191	-292.305664	134.889526	-578.800720
8607.878490	-296.572174	137.052017	-566.293396
8607.881798	-299.319122	139.097595	-551.799011
8607.885136	-301.656921	140.850967	-538.473450
8607.888444	-304.345398	142.195206	-525.732361
8607.891820	-306.449463	143.539444	-512.991272
8607.895162	-308.319702	145.409698	-499.957886
8607.898523	-310.599091	146.578613	-487.450592
8607.901845	-311.300415	147.805954	-473.306854
8607.905156	-311.884857	148.156631	-461.091766
8607.908547	-312.586212	149.617767	-447.941528
8607.911879	-311.943298	149.734650	-436.018707
8607.915182	-312.878418	150.026886	-423.336060
8607.918553	-312.118622	150.669785	-411.588531
8607.921849	-312.410858	150.786667	-399.899475
8607.925187	-311.300415	150.845108	-387.801300
8607.928552	-310.482178	150.786667	-376.579773
8607.931847	-310.014618	150.962006	-365.475159
8607.935241	-308.670380	149.734650	-354.604309
8607.938536	-307.326111	149.968430	-342.973694
8607.942278	-305.981873	149.091751	-332.395111
8607.945616	-303.994751	147.922852	-322.576263
8607.948916	-302.299835	147.221512	-312.172974
8607.952188	-300.078918	145.643478	-302.237305
8607.955496	-298.383972	145.000580	-292.886017
8607.958869	-296.104614	143.481003	-283.826996
8607.962157	-293.942139	142.370529	-274.358856
8607.965501	-292.013428	141.143188	-265.942719
8607.968846	-288.857391	139.214493	-257.643494
8607.972136	-286.578033	137.578018	-249.227356
8607.975480	-283.421967	136.116882	-241.571014
8607.978799	-281.434845	135.240204	-234.206894
8607.982133	-278.571014	133.603745	-226.608994
8607.985461	-275.882507	131.733490	-220.764465
8607.988792	-272.784912	130.330795	-213.049667
8607.992177	-270.622437	129.454117	-207.205154
8607.995467	-267.641724	127.583870	-200.600815
8607.998768	-264.777924	126.648750	-194.639374
8608.002099	-262.147858	124.369377	-189.379303
8608.005387	-258.991821	123.492699	-183.008759
8608.008671	-256.069550	122.265343	-178.040909
8608.012049	-253.556396	120.395103	-172.488602
8608.015361	-250.400330	119.635307	-166.351837
8608.018645	-247.302765	118.524849	-161.851547
8608.021976	-244.614258	117.239044	-156.474579
8608.025301	-242.042679	116.303917	-152.032730
8608.028600	-239.529526	115.310341	-148.584442
8608.032041	-236.841019	114.141434	-143.850372
8608.035345	-234.035645	112.972527	-140.285202
8608.038642	-231.639404	111.803619	-135.784927
8608.041974	-229.184692	110.634712	-131.810623
8608.045294	-226.379303	109.115143	-128.771469
8608.048649	-223.398605	108.822914	-123.803635
8608.051995	-220.242554	107.303329	-119.303337
8608.055289	-217.554062	105.900642	-115.738167
8608.058663	-215.508469	105.257744	-112.523666
8608.062402	-212.352432	103.621277	-109.133842
8608.065353	-210.073059	102.335487	-105.276443
8608.068645	-206.858551	102.043251	-102.412628
8608.072415	-204.988297	100.699013	-98.613678
8608.075348	-203.118042	99.413216	-95.340736
8608.079059	-200.604904	98.536537	-92.652252
8608.082433	-198.267090	97.601410	-89.554649
8608.085732	-195.520172	95.497375	-87.099945
8608.089087	-193.416138	95.146698	-84.586792
8608.092412	-191.370544	93.977791	-82.190536
8608.095735	-189.208069	93.159561	-79.443604
8608.099044	-187.513153	92.516655	-76.930450
8608.102362	-184.649323	90.412621	-74.767975
8608.105660	-183.363525	89.535950	-72.021042
8608.109009	-181.785507	89.068382	-70.384575
8608.112291	-179.623032	87.724136	-68.046753
8608.115663	-177.402100	86.730568	-66.001167
8608.118954	-175.531845	85.970779	-64.423149
8608.122239	-174.012283	84.801872	-62.494446
8608.125616	-173.077148	83.925194	-60.448860
8608.128904	-171.031555	83.106964	-59.747520
8608.132384	-169.161301	82.639397	-57.935707
8608.135681	-167.524841	81.295151	-56.766808
8608.138992	-166.180603	80.769142	-54.954994
8608.142339	-165.245468	79.717125	-54.838104
8608.145654	-163.550552	79.249565	-53.552307
8608.148980	-162.323196	78.781998	-52.208061
8608.152332	-160.745178	78.255997	-50.630043
8608.155635	-159.576279	77.437759	-50.279366
8608.158977	-158.758026	77.028641	-48.701347
8608.162297	-158.232025	76.853310	-47.415550
8608.165682	-156.595566	75.918182	-46.071304
8608.168971	-155.251312	75.216835	-45.895966
8608.172300	-154.140854	75.158386	-44.843948
8608.175665	-152.679718	74.749275	-43.908821
8608.178992	-151.803040	73.814148	-43.032143
8608.182289	-150.400345	74.164818	-42.447693
8608.185591	-149.348328	73.580368	-41.337227
8608.188943	-148.120987	73.463478	-40.460548
8608.192302	-147.244293	72.879021	-39.525421
8608.195630	-146.016953	72.236122	-39.057861
8608.198950	-145.374054	72.236122	-37.713615
8608.202293	-144.263596	71.417885	-36.544708
8608.205601	-143.328461	71.300995	-36.135590
8608.208962	-142.334885	71.300995	-35.434250
8608.212276	-141.867325	70.774986	-34.674461
8608.215614	-140.756866	70.424316	-33.563995
8608.218918	-139.295731	69.781418	-33.037987
8608.222615	-138.828171	69.255409	-33.096436
8608.225934	-138.068375	69.489189	-32.161308
8608.229247	-137.250153	69.255409	-31.576857
8608.232690	-137.308594	68.670952	-31.167738
8608.235969	-136.256577	68.320282	-30.466394
8608.239297	-135.672134	67.794273	-30.232613
8608.242585	-135.263000	67.852722	-29.823494
8608.245913	-134.912338	67.326714	-30.583284
8608.249274	-134.853882	67.326714	-29.005260
8608.252627	-134.269424	66.216248	-29.531267
8608.255906	-133.509644	66.216248	-29.063705
8608.259185	-133.860321	66.274696	-28.771479
8608.262484	-133.275864	66.216248	-28.362362
8608.265835	-133.334305	65.924026	-28.303915
8608.269197	-132.808304	65.982468	-27.602571
8608.272488	-132.866745	65.398018	-27.836353
8608.275833	-132.925186	65.748688	-27.076563
8608.279129	-132.632965	65.690247	-28.070135
8608.282491	-132.925186	65.865578	-27.602571
8608.285806	-132.983643	65.865578	-28.420807
8608.289140	-133.100525	65.514908	-28.479252
8608.292415	-132.632965	65.865578	-28.362362
8608.295754	-133.217422	65.573357	-28.070135
8608.299059	-132.632965	65.281128	-28.829924
8608.302365	-132.749847	65.690247	-28.713034
8608.305704	-133.217422	66.099358	-28.888369
