time (s)	det(V)
3399.224514	-1.256095	
3399.225993	-1.225467	
3399.227703	-1.201821	
3399.229187	-1.181446	
3399.230884	-1.148224	
3399.232394	-1.121778	
3399.234039	-1.097274	
3399.235568	-1.059360	
3399.237192	-1.035218	
3399.238735	-1.005513	
3399.240326	-0.979579	
3399.241919	-0.949270	
3399.243488	-0.931045	
3399.245118	-0.910614	
3399.246656	-0.892511	
3399.248359	-0.874589	
3399.249833	-0.851410	
3399.251545	-0.826950	
3399.253019	-0.805886	
3399.254730	-0.787670	
3399.256213	-0.766698	
3399.257919	-0.742653	
3399.259404	-0.728784	
3399.261044	-0.724481	
3399.262559	-0.707007	
3399.264159	-0.696396	
3399.265697	-0.679018	
3399.267265	-0.661527	
3399.268809	-0.645643	
3399.270318	-0.638481	
3399.271954	-0.620402	
3399.273534	-0.609062	
3399.275156	-0.599950	
3399.276683	-0.587337	
3399.278329	-0.583293	
3399.279822	-0.573423	
3399.281468	-0.561282	
3399.282964	-0.553189	
3399.284598	-0.538143	
3399.286083	-0.529954	
3399.287727	-0.520858	
3399.289208	-0.512878	
3399.290816	-0.504765	
3399.292325	-0.495971	
3399.293887	-0.494710	
3399.295463	-0.484804	
3399.296954	-0.475801	
3399.298628	-0.472864	
3399.300113	-0.466008	
3399.301741	-0.454544	
3399.303266	-0.442886	
3399.304889	-0.433729	
3399.306369	-0.422623	
3399.308025	-0.413410	
3399.309503	-0.413100	
3399.311146	-0.409958	
3399.312631	-0.405825	
3399.314259	-0.400226	
3399.315772	-0.400923	
3399.317341	-0.385800	
3399.318888	-0.374038	
3399.320424	-0.361280	
3399.322023	-0.351056	
3399.323515	-0.342041	
3399.325150	-0.328711	
3399.326671	-0.325271	
3399.328315	-0.317685	
3399.329793	-0.309774	
3399.331417	-0.307063	
3399.332887	-0.304352	
3399.334537	-0.295574	
3399.336024	-0.282381	
3399.337662	-0.276093	
3399.339159	-0.266538	
3399.340742	-0.256169	
3399.342295	-0.246312	
3399.343843	-0.240914	
3399.345435	-0.233522	
3399.346932	-0.227205	
3399.348610	-0.221823	
3399.350105	-0.222150	
3399.351731	-0.205803	
3399.353259	-0.199619	
3399.354893	-0.186725	
3399.356380	-0.180126	
3399.358027	-0.165359	
3399.359522	-0.162325	
3399.361174	-0.163489	
3399.362661	-0.159940	
3399.364308	-0.151997	
3399.365790	-0.147400	
3399.367381	-0.144931	
3399.368900	-0.133253	
3399.370455	-0.125067	
3399.372056	-0.114573	
3399.373553	-0.108660	
3399.375194	-0.103298	
3399.376708	-0.101868	
3399.378366	-0.099085	
3399.379855	-0.099338	
3399.381487	-0.093711	
3399.382966	-0.094899	
3399.384617	-0.089691	
3399.386095	-0.081030	
3399.387726	-0.077328	
3399.389212	-0.073094	
3399.390841	-0.072135	
3399.392366	-0.063865	
3399.393925	-0.065017	
3399.395487	-0.062000	
3399.397000	-0.062173	
3399.398648	-0.067019	
3399.400150	-0.063144	
3399.401792	-0.057524	
3399.403308	-0.056131	
3399.404948	-0.053194	
3399.406432	-0.048150	
3399.408078	-0.044396	
3399.409555	-0.049411	
3399.411200	-0.044352	
3399.412691	-0.051506	
3399.414314	-0.045754	
3399.415827	-0.049387	
3399.417414	-0.052803	
3399.418948	-0.049492	
3399.420494	-0.046704	
3399.422091	-0.045270	
3399.423586	-0.041298	
3399.425241	-0.035594	
3399.426733	-0.040130	
3399.428366	-0.041097	
3399.429892	-0.044416	
3399.431517	-0.039151	
3399.433006	-0.044803	
3399.434572	-0.041903	
3399.436082	-0.036702	
3399.437632	-0.034043	
3399.439158	-0.037878	
3399.440649	-0.033028	
3399.442215	-0.032069	
3399.443745	-0.033532	
3399.445342	-0.034764	
3399.446842	-0.036674	
3399.448480	-0.034631	
3399.450006	-0.040573	
3399.451638	-0.033415	
3399.453130	-0.029366	
3399.454704	-0.024440	
3399.456209	-0.021684	
3399.457762	-0.017080	
3399.459269	-0.018808	
3399.460780	-0.017938	
3399.462367	-0.018546	
3399.463941	-0.014985	
3399.465487	-0.016166	
3399.467011	-0.014369	
3399.468613	-0.004238	
3399.470110	-0.003287	
3399.471700	-0.000077	
3399.473207	0.006357	
3399.474771	0.010643	
3399.476290	0.008568	
3399.477838	0.010913	
3399.479377	0.016440	
3399.480917	0.015086	
3399.482494	0.020975	
3399.483983	0.026643	
3399.485552	0.037536	
3399.487084	0.042922	
3399.488671	0.051035	
3399.490170	0.047655	
3399.491733	0.053258	
3399.493260	0.058644	
3399.494853	0.052014	
3399.496356	0.058612	
3399.497922	0.057774	
3399.499427	0.065976	
3399.500992	0.070854	
3399.502523	0.083020	
3399.504016	0.083934	
3399.505606	0.086202	
3399.507134	0.098150	
3399.508734	0.089421	
3399.510225	0.094142	
3399.511783	0.102464	
3399.513307	0.096809	
3399.514902	0.095930	
3399.516409	0.098702	
3399.517919	0.108910	
3399.519498	0.110352	
3399.521045	0.109518	
3399.522619	0.115681	
3399.524105	0.122679	
3399.525689	0.128157	
3399.527219	0.124830	
3399.528832	0.126433	
3399.530329	0.123287	
3399.531895	0.133986	
3399.533431	0.123835	
3399.534998	0.135138	
3399.536536	0.135617	
3399.538071	0.143344	
3399.539646	0.139618	
3399.541163	0.148194	
3399.542732	0.138212	
3399.544251	0.144540	
3399.545852	0.146184	
3399.547344	0.144693	
3399.548916	0.145990	
3399.550443	0.146131	
3399.552054	0.155207	
3399.553548	0.148669	
3399.555129	0.153580	
3399.556665	0.150043	
3399.558256	0.154494	
3399.559753	0.160927	
3399.561269	0.163155	
3399.562847	0.158398	
3399.564373	0.157475	
3399.565955	0.159989	
3399.567448	0.154418	
3399.569055	0.165000	
3399.570571	0.166547	
3399.572174	0.169052	
3399.573664	0.174120	
3399.575243	0.174587	
3399.576770	0.175087	
3399.578340	0.181665	
3399.579863	0.177875	
3399.581395	0.186556	
3399.582958	0.187011	
3399.584472	0.184336	
3399.586036	0.199998	
3399.587536	0.201452	
3399.589156	0.203342	
3399.590650	0.211870	
3399.592220	0.213380	
3399.593740	0.216563	
3399.595343	0.216409	
3399.596830	0.227109	
3399.598399	0.228821	
3399.599922	0.224402	
3399.601510	0.242505	
3399.603042	0.250179	
3399.604566	0.263432	
3399.606148	0.281318	
3399.607685	0.279521	
3399.609238	0.280895	
3399.610733	0.285435	
3399.612319	0.287445	
3399.613844	0.308855	
3399.615437	0.304747	
3399.616928	0.306334	
3399.618502	0.327055	
3399.620023	0.342012	
3399.621616	0.356627	
3399.623101	0.368072	
3399.624658	0.375609	
3399.626199	0.376833	
3399.627747	0.387412	
3399.629320	0.394078	
3399.630809	0.405358	
3399.632433	0.413499	
3399.633929	0.417491	
3399.635512	0.440698	
3399.637041	0.443466	
3399.638638	0.459571	
3399.640127	0.475225	
3399.641698	0.493099	
3399.643218	0.498472	
3399.644812	0.508064	
3399.646304	0.515109	
3399.647859	0.538296	
3399.649387	0.533317	
3399.650908	0.547960	
3399.652524	0.575772	
3399.654012	0.588050	
3399.655587	0.598613	
3399.657099	0.608180	
3399.658678	0.624398	
3399.660206	0.641155	
3399.661758	0.652717	
3399.663303	0.665080	
3399.664827	0.675811	
3399.666380	0.689806	
3399.667921	0.702910	
3399.669483	0.716501	
3399.670985	0.725360	
3399.672577	0.739080	
3399.674105	0.757236	
3399.675714	0.767476	
3399.677202	0.780725	
3399.678764	0.790486	
3399.680289	0.808391	
3399.681866	0.817523	
3399.683406	0.827618	
3399.684941	0.843796	
3399.686512	0.864474	
3399.688032	0.881384	
3399.689617	0.893840	
3399.691117	0.907049	
3399.692689	0.920934	
3399.694207	0.930973	
3399.695820	0.945596	
3399.697313	0.964364	
3399.698871	0.976477	
3399.700390	0.992131	
3399.701957	1.013525	
3399.703492	1.027238	
3399.705035	1.047831	
3399.706600	1.069249	
3399.708128	1.084086	
3399.709709	1.114270	
3399.711206	1.134097	
3399.712819	1.150355	
3399.714315	1.176632	
3399.715941	1.194393	
3399.717431	1.217665	
3399.719031	1.242181	
3399.720528	1.274802	
3399.722096	1.301433	
3399.723616	1.319649	
3399.725191	1.351510	
3399.726715	1.381565	
3399.728254	1.403588	
3399.729811	1.435843	
3399.731334	1.462917	
3399.732900	1.493032	
3399.734397	1.541759	
3399.735976	1.570102	
3399.737505	1.597584	
3399.739108	1.617592	
3399.740605	1.627365	
3399.742183	1.627933	
3399.743698	1.628001	
3399.745271	1.628074	
3399.746798	1.628030	
3399.748336	1.628062	
3399.749890	1.627969	
3399.751415	1.628078	
3399.752998	1.627957	
3399.754498	1.628163	
3399.756117	1.628022	
3399.757612	1.627989	
3399.759218	1.627965	
3399.760725	1.628001	
3399.762309	1.628146	
3399.763829	1.628013	
3399.765408	1.628102	
3399.766927	1.627989	
3399.768490	1.627977	
3399.770035	1.627925	
3399.771568	1.628062	
3399.773124	1.628058	
3399.774658	1.627969	
3399.776243	1.628006	
3399.777737	1.628050	
3399.779304	1.628009	
3399.780831	1.628005	
3399.782425	1.628062	
3399.783934	1.628005	
3399.785504	1.628034	
3399.787029	1.628078	
3399.788616	1.628042	
3399.790146	1.628034	
3399.791674	1.628146	
3399.793244	1.628013	
3399.794770	1.628086	
3399.796345	1.628046	
3399.797844	1.628042	
3399.799451	1.628074	
3399.800951	1.628114	
3399.802550	1.628118	
3399.804049	1.627973	
3399.805615	1.628050	
3399.807153	1.627921	
3399.808716	1.628082	
3399.810242	1.628009	
3399.811815	1.628102	
3399.813350	1.628078	
3399.814890	1.628062	
3399.816454	1.628082	
3399.817987	1.628114	
3399.819559	1.628030	
3399.821049	1.628074	
3399.822622	1.628017	
3399.824157	1.627989	
3399.825779	1.628058	
3399.827273	1.627949	
3399.828837	1.628074	
3399.830362	1.628026	
3399.831932	1.628154	
3399.833471	1.628034	
3399.835004	1.628013	
3399.836559	1.628034	
3399.838083	1.627893	
3399.839649	1.628130	
3399.841148	1.628042	
3399.842739	1.628106	
3399.844258	1.628090	
3399.845873	1.627977	
3399.847375	1.627997	
3399.848945	1.628054	
3399.850488	1.628038	
3399.852064	1.628054	
3399.853585	1.628017	
3399.855141	1.628126	
3399.856698	1.628018	
3399.858199	1.628046	
3399.859794	1.628074	
3399.861323	1.628070	
3399.862934	1.628086	
3399.864434	1.628114	
3399.866016	1.627993	
3399.867550	1.628074	
3399.869156	1.628134	
3399.870642	1.627993	
3399.872164	1.628167	
3399.873739	1.627969	
3399.875280	1.628126	
3399.876840	1.628130	
3399.878332	1.628074	
3399.879952	1.628070	
3399.881449	1.628126	
3399.883040	1.627977	
3399.884541	1.628021	
3399.886147	1.628138	
3399.887642	1.628042	
3399.889194	1.627977	
3399.890726	1.628090	
3399.892280	1.628062	
3399.893824	1.627985	
3399.895361	1.628046	
3399.896924	1.627925	
3399.898455	1.628082	
3399.900022	1.627953	
3399.901517	1.628034	
3399.903089	1.628038	
3399.904613	1.628046	
3399.906211	1.628130	
3399.907725	1.628062	
3399.909309	1.627913	
3399.910810	1.628017	
3399.912366	1.628050	
3399.913903	1.628054	
3399.915463	1.627945	
3399.917008	1.628017	
3399.918545	1.628058	
3399.920096	1.627989	
3399.921609	1.627917	
3399.923199	1.627961	
3399.924690	1.628050	
3399.926272	1.627949	
3399.927794	1.628001	
3399.929393	1.627949	
3399.930902	1.627957	
3399.932471	1.628094	
3399.934020	1.628062	
3399.935571	1.628022	
3399.937110	1.628054	
3399.938635	1.628066	
3399.940209	1.628021	
3399.941732	1.628090	
3399.943312	1.628029	
3399.944809	1.628082	
3399.946422	1.628026	
3399.947919	1.627981	
3399.949523	1.628086	
3399.951033	1.628166	
3399.952602	1.627997	
3399.954130	1.628074	
3399.955691	1.628118	
3399.957228	1.628082	
3399.958782	1.628058	
3399.960327	1.628058	
3399.961871	1.628005	
3399.963425	1.627981	
3399.964962	1.628118	
3399.966539	1.628025	
3399.968034	1.628001	
3399.969611	1.628042	
3399.971141	1.627953	
3399.972740	1.627933	
3399.974244	1.621790	
3399.975803	1.495526	
3399.977335	1.397473	
3399.978897	1.295850	
3399.980442	1.192012	
3399.981967	1.101629	
3399.983555	1.006991	
3399.985094	0.908684	
3399.986667	0.818990	
3399.988152	0.728675	
3399.989761	0.640922	
3399.991253	0.539896	
3399.992851	0.444400	
3399.994353	0.347737	
3399.995909	0.250497	
3399.997449	0.146305	
3399.999002	0.044884	
3400.000547	-0.051115	
3400.002056	-0.144161	
3400.003655	-0.239045	
3400.005149	-0.329835	
3400.006731	-0.423308	
3400.008256	-0.521043	
3400.009864	-0.634025	
3400.011363	-0.744393	
3400.012922	-0.851962	
3400.014449	-0.956972	
3400.016016	-1.064991	
3400.017556	-1.161389	
3400.019070	-1.252957	
3400.020661	-1.344847	
3400.022178	-1.431750	
3400.023750	-1.520308	
3400.025268	-1.596685	
3400.026867	-1.625822	
3400.028355	-1.626213	
3400.029934	-1.626140	
3400.031463	-1.626229	
3400.033050	-1.626233	
3400.034559	-1.626181	
3400.036130	-1.626176	
3400.037662	-1.626152	
3400.039217	-1.626173	
3400.040767	-1.626225	
3400.042284	-1.626035	
3400.043862	-1.626172	
3400.045380	-1.626164	
3400.046965	-1.626132	
3400.048460	-1.626168	
3400.050072	-1.626245	
3400.051579	-1.626257	
3400.053177	-1.626233	
3400.054678	-1.626185	
3400.056249	-1.626297	
3400.057775	-1.626156	
3400.059341	-1.626297	
3400.060890	-1.626176	
3400.062401	-1.626201	
3400.063981	-1.626273	
3400.065489	-1.626116	
3400.067070	-1.626060	
3400.068581	-1.626164	
3400.070195	-1.626189	
3400.071690	-1.626273	
3400.073271	-1.626213	
3400.074797	-1.626201	
3400.076399	-1.626257	
3400.077903	-1.626213	
3400.079471	-1.626253	
3400.081004	-1.626277	
3400.082548	-1.626209	
3400.084094	-1.626362	
3400.085623	-1.626225	
3400.087197	-1.626209	
3400.088711	-1.626245	
3400.090303	-1.626209	
3400.091799	-1.626293	
3400.093393	-1.626168	
3400.094889	-1.626213	
3400.096489	-1.626205	
3400.097990	-1.626277	
3400.099567	-1.626229	
3400.101077	-1.626176	
3400.102642	-1.626225	
3400.104169	-1.626148	
3400.105692	-1.626160	
3400.107256	-1.626261	
3400.108770	-1.626249	
3400.110332	-1.626261	
3400.111811	-1.626253	
3400.113453	-1.626265	
3400.114943	-1.626277	
3400.116543	-1.626305	
3400.118041	-1.626209	
3400.119647	-1.626241	
3400.121155	-1.626237	
3400.122729	-1.626160	
3400.124257	-1.626253	
3400.125803	-1.626281	
3400.127357	-1.626176	
3400.128879	-1.626257	
3400.130451	-1.626217	
3400.131969	-1.626225	
3400.133558	-1.626241	
3400.135050	-1.626148	
3400.136638	-1.626124	
3400.138166	-1.626313	
3400.139755	-1.626209	
3400.141243	-1.626281	
3400.142826	-1.626152	
3400.144360	-1.626132	
3400.145928	-1.626253	
3400.147453	-1.626237	
3400.148941	-1.626040	
3400.150775	-1.626112	
3400.152275	-1.626108	
3400.154004	-1.626181	
3400.155529	-1.626152	
3400.157272	-1.626128	
3400.158811	-1.626233	
3400.160520	-1.626172	
3400.162070	-1.626080	
3400.163763	-1.626132	
3400.165324	-1.626229	
3400.167023	-1.626168	
3400.168588	-1.626160	
3400.170254	-1.626052	
3400.171844	-1.626168	
3400.173490	-1.626112	
3400.175103	-1.626184	
3400.176760	-1.626007	
3400.178364	-1.626293	
3400.179993	-1.626007	
3400.181614	-1.626205	
3400.183234	-1.626092	
3400.184921	-1.626193	
3400.186505	-1.626140	
3400.188185	-1.626213	
3400.189784	-1.626068	
3400.191453	-1.626209	
3400.193037	-1.625991	
3400.194730	-1.626108	
3400.196284	-1.626023	
3400.197999	-1.626116	
3400.199538	-1.626172	
3400.201249	-1.626181	
3400.202808	-1.626056	
3400.204523	-1.626047	
3400.206041	-1.626035	
3400.207794	-1.626048	
3400.209296	-1.626060	
3400.211077	-1.626108	
3400.212561	-1.626076	
3400.214326	-1.626176	
3400.215818	-1.626176	
3400.217594	-1.626036	
3400.219085	-1.626060	
3400.220847	-1.626084	
3400.222349	-1.626132	
3400.224120	-1.626116	
3400.225622	-1.626148	
3400.227383	-1.626060	
3400.228890	-1.626088	
3400.230619	-1.626027	
3400.232148	-1.626132	
3400.233851	-1.626100	
3400.235395	-1.626112	
3400.237091	-1.626060	
3400.238647	-1.626128	
3400.240323	-1.626027	
3400.241888	-1.626172	
3400.243554	-1.626027	
3400.245137	-1.626144	
3400.246801	-1.626064	
3400.248408	-1.626140	
3400.250039	-1.626048	
3400.251659	-1.626156	
3400.253280	-1.625943	
3400.254920	-1.626136	
3400.256546	-1.625476	
3400.258231	-1.611771	
3400.259814	-1.556442	
3400.261490	-1.520477	
3400.263070	-1.497854	
3400.264755	-1.465318	
3400.266335	-1.435959	
3400.268027	-1.402351	
3400.269591	-1.373508	
3400.271293	-1.340271	
3400.272850	-1.316540	
3400.274568	-1.288966	
3400.276119	-1.271024	
3400.277826	-1.246878	
3400.279342	-1.230805	
3400.281101	-1.208279	
3400.282588	-1.190864	
3400.284379	-1.164551	
3400.285868	-1.141320	
3400.287656	-1.120775	
3400.289144	-1.106431	
3400.290931	-1.080021	
3400.292412	-1.065007	
3400.294177	-1.056548	
3400.295668	-1.037877	
3400.297431	-1.019914	
3400.298943	-1.004204	
3400.300704	-0.987180	
3400.302216	-0.963957	
3400.303946	-0.947815	
3400.305472	-0.929837	
3400.307174	-0.911975	
3400.308713	-0.891532	
3400.310423	-0.882109	
3400.311984	-0.864772	
3400.313678	-0.853275	
3400.315232	-0.835417	
3400.316912	-0.822712	
3400.318494	-0.797378	
3400.320156	-0.779508	
3400.321750	-0.762823	
3400.323386	-0.743233	
3400.324994	-0.727321	
3400.326616	-0.721174	
3400.328266	-0.698458	
3400.329871	-0.687147	
3400.331511	-0.671569	
3400.333112	-0.659158	
3400.334781	-0.634855	
3400.336345	-0.612969	
3400.338028	-0.598258	
3400.339585	-0.584356	
3400.341293	-0.562096	
3400.342842	-0.546558	
3400.344533	-0.534953	
3400.346061	-0.516725	
3400.347794	-0.499455	
3400.349292	-0.487777	
3400.351066	-0.469895	
3400.352549	-0.452707	
3400.354312	-0.434728	
3400.355791	-0.424718	
3400.357575	-0.410224	
3400.359058	-0.400185	
3400.360832	-0.386272	
3400.362331	-0.377409	
3400.364087	-0.367878	
3400.365589	-0.354806	
3400.367347	-0.345408	
3400.368864	-0.324437	
3400.370606	-0.314116	
3400.372139	-0.300347	
3400.373842	-0.285427	
3400.375385	-0.274333	
3400.377080	-0.270244	
3400.378632	-0.260560	
3400.380322	-0.252112	
3400.381895	-0.247367	
3400.383571	-0.239089	
3400.385148	-0.220647	
3400.386807	-0.216426	
3400.388407	-0.205815	
3400.390033	-0.198286	
3400.391656	-0.189911	
3400.393291	-0.189730	
3400.394924	-0.175115	
3400.396544	-0.179655	
3400.398218	-0.174390	
3400.399801	-0.172054	
3400.401493	-0.158591	
3400.403075	-0.155191	
3400.404778	-0.148379	
3400.406351	-0.142522	
3400.408031	-0.136947	
3400.409604	-0.139899	
3400.411298	-0.131359	
3400.412836	-0.136979	
3400.414551	-0.140830	
3400.416091	-0.141495	
3400.417805	-0.126054	
3400.419305	-0.129555	
3400.421066	-0.125607	
3400.422548	-0.122820	
3400.424316	-0.121978	
3400.425811	-0.124809	
3400.427599	-0.124612	
3400.429081	-0.120378	
3400.430856	-0.121857	
3400.432334	-0.122570	
3400.434093	-0.122562	
3400.435591	-0.119210	
3400.437331	-0.114002	
3400.438857	-0.111613	
3400.440604	-0.106134	
3400.442124	-0.104756	
3400.443841	-0.110481	
3400.445374	-0.106215	
3400.447086	-0.102029	
3400.448639	-0.104277	
3400.450325	-0.100922	
3400.451898	-0.093638	
3400.453556	-0.093961	
3400.455148	-0.086694	
3400.456800	-0.083314	
3400.458386	-0.072236	
3400.460039	-0.076909	
3400.461650	-0.074314	
3400.463278	-0.074258	
3400.464907	-0.074492	
3400.466493	-0.067780	
3400.468151	-0.058676	
3400.469740	-0.056823	
3400.471405	-0.050136	
3400.472978	-0.044904	
3400.474656	-0.037661	
3400.476219	-0.035486	
3400.477942	-0.026845	
3400.479497	-0.025463	
3400.481228	-0.025729	
3400.482777	-0.018663	
3400.484511	-0.009942	
3400.486033	-0.005841	
3400.487777	0.007400	
3400.489287	0.015239	
3400.491073	0.025463	
3400.492563	0.034579	
3400.494343	0.032718	
3400.495830	0.033044	
3400.497596	0.051204	
3400.499076	0.050435	
3400.500850	0.051019	
3400.502342	0.061577	
3400.504133	0.074713	
3400.505630	0.080820	
3400.507389	0.092647	
3400.508892	0.099069	
3400.510641	0.097264	
3400.512165	0.102070	
3400.513793	0.100857	
3400.515352	0.116201	
3400.516949	0.112636	
3400.518543	0.125909	
3400.520136	0.131496	
3400.521740	0.138913	
3400.523294	0.151376	
3400.524921	0.156387	
3400.526432	0.148291	
3400.528129	0.170184	
3400.529620	0.161665	
3400.531361	0.159421	
3400.532835	0.156939	
3400.534566	0.169028	
3400.536049	0.176243	
3400.537760	0.184384	
3400.539244	0.191108	
3400.540939	0.187832	
3400.542428	0.189250	
3400.544114	0.196002	
3400.545620	0.198697	
3400.547266	0.187635	
3400.548799	0.192872	
3400.550453	0.201867	
3400.552003	0.199454	
3400.553628	0.197750	
3400.555202	0.204744	
3400.556781	0.198769	
3400.558413	0.212079	
3400.559958	0.219785	
3400.561585	0.212691	
3400.563083	0.205948	
3400.564791	0.212417	
3400.566265	0.202870	
3400.567982	0.228240	
3400.569458	0.212840	
3400.571178	0.207789	
3400.572659	0.232333	
3400.574355	0.243113	
3400.575853	0.227459	
3400.577567	0.233115	
3400.579053	0.234207	
3400.580737	0.236382	
3400.582239	0.239049	
3400.583897	0.242271	
3400.585416	0.251851	
3400.587054	0.249256	
3400.588622	0.262155	
3400.590225	0.268069	
3400.591826	0.274179	
3400.593386	0.279702	
3400.595007	0.292037	
3400.596550	0.294277	
3400.598221	0.291364	
3400.599700	0.300259	
3400.601406	0.319514	
3400.602887	0.323591	
3400.604608	0.326213	
3400.606089	0.339736	
3400.607802	0.351576	
3400.609295	0.359121	
3400.611021	0.366311	
3400.612509	0.381965	
3400.614223	0.389321	
3400.615701	0.400866	
3400.617380	0.415606	
3400.618891	0.432424	
