time (s)	magX	magY	magZ
6624.315958	-167.174179	106.952660	-49.694916
6624.319277	-164.894791	104.965515	-47.941559
6624.323040	-162.264755	103.387497	-46.012863
6624.326385	-160.511398	101.809471	-44.259499
6624.329302	-158.232025	100.699013	-42.564583
6624.333124	-156.128006	99.179428	-41.571014
6624.336427	-154.199295	98.010521	-39.174751
6624.339691	-151.919922	97.016953	-38.590302
6624.343021	-150.517242	95.906494	-36.778488
6624.346364	-147.770309	94.796036	-35.142021
6624.349709	-146.484512	93.919342	-34.090004
6624.352658	-144.731155	92.808884	-33.622444
6624.356421	-143.386917	91.815315	-31.985973
6624.359767	-141.165985	90.646408	-30.875511
6624.363024	-139.646408	89.945061	-30.174168
6624.366353	-138.009949	88.893044	-28.479252
6624.369688	-136.431915	87.899475	-27.602571
6624.373040	-134.795441	87.841026	-26.959673
6624.376403	-133.042084	86.438339	-24.738749
6624.379745	-131.990067	85.970779	-24.446522
6624.383091	-130.002930	84.743431	-23.628288
6624.386389	-128.775574	84.100525	-22.576271
6624.389702	-126.905319	82.405617	-21.933372
6624.393013	-125.970200	82.464058	-21.290474
6624.396404	-124.801285	81.704269	-20.355347
6624.399699	-123.515488	80.593811	-18.718878
6624.403117	-122.054352	79.834015	-18.718878
6624.406422	-121.353012	79.366455	-18.485096
6624.409755	-119.774979	78.840446	-17.257744
6624.413021	-119.307419	77.613091	-16.030392
6624.416351	-118.313843	76.736420	-15.387493
6624.419716	-117.729401	76.444183	-15.212156
6624.423035	-116.326714	75.684402	-14.335476
6624.426462	-115.099358	74.106377	-13.809468
6624.429788	-114.339569	73.989479	-13.517241
6624.433079	-113.521339	72.703682	-12.874342
6624.436351	-113.229111	72.528343	-12.465225
6624.439704	-112.177086	72.002342	-11.530100
6624.443012	-111.300407	71.008766	-11.004091
6624.446363	-110.715958	70.541206	-11.004091
6624.449705	-109.547058	70.132088	-10.419638
6624.453089	-108.845711	69.839859	-10.536529
6624.456451	-108.495033	69.196968	-10.419638
6624.459682	-107.735237	68.963181	-9.835184
6624.463020	-107.092346	68.670952	-9.250731
6624.466344	-106.741669	68.203392	-9.776739
6624.469736	-106.507889	68.378731	-8.607832
6624.473024	-105.864990	68.203392	-8.666277
6624.476430	-105.748108	67.560493	-9.250731
6624.479782	-104.988312	67.502045	-7.438925
6624.483037	-104.520752	67.326714	-8.315605
6624.486340	-104.871414	67.560493	-8.724722
6624.489679	-104.871414	67.618935	-9.192286
6624.493046	-103.585625	66.976044	-8.724722
6624.496358	-103.702507	66.859154	-7.906487
6624.499772	-103.468727	67.034485	-6.912916
6624.503092	-103.468727	67.209824	-7.497370
6624.506377	-103.293396	67.385155	-7.789597
6624.509672	-102.767380	66.508476	-7.731152
6624.513009	-102.884277	66.625374	-7.029807
6624.516362	-102.475166	66.625374	-6.562244
6624.519697	-103.001167	66.917595	-6.737580
6624.523081	-102.533600	67.034485	-7.322034
6624.526450	-102.007607	66.859154	-7.205143
6624.529775	-102.533600	66.742264	-7.906487
6624.533013	-102.650497	66.800705	-7.205143
6624.536338	-102.884277	66.742264	-7.263589
6624.539665	-102.650497	66.391586	-7.438925
6624.543026	-101.773819	66.800705	-7.205143
6624.546362	-102.533600	66.742264	-6.854471
6624.549745	-102.650497	66.976044	-7.731152
6624.553078	-103.819405	66.917595	-7.614261
6624.556337	-103.351845	66.976044	-7.731152
6624.559668	-103.059616	66.917595	-6.796026
6624.563004	-104.111633	66.742264	-7.614261
6624.566360	-103.877853	67.092934	-8.549386
6624.569716	-104.579201	66.917595	-7.906487
6624.573073	-104.988312	67.034485	-8.023378
6624.576404	-105.046761	66.976044	-8.783168
6624.579728	-105.748108	66.859154	-9.250731
6624.582995	-106.098770	67.911171	-8.374050
6624.586331	-106.800117	67.852722	-8.257160
6624.589670	-107.443008	68.378731	-8.841613
6624.593032	-107.267677	68.437172	-9.016949
6624.596347	-107.793686	68.495621	-9.426067
6624.599757	-108.962593	69.138519	-10.068966
6624.603125	-109.663940	69.196968	-10.185856
6624.606348	-110.482178	69.722969	-10.244302
6624.609667	-111.066628	69.956749	-11.237873
6624.613029	-111.417305	70.658096	-11.062536
6624.616345	-112.586212	71.885452	-11.004091
6624.619705	-113.872002	71.943893	-12.406779
6624.623084	-114.748680	72.002342	-12.523670
6624.626412	-115.391586	72.469902	-13.108124
6624.629752	-116.151367	73.112808	-14.043249
6624.632995	-117.028061	73.814148	-14.277031
6624.636340	-118.255417	74.866165	-15.212156
6624.639661	-118.489197	75.275276	-15.855056
6624.643022	-119.365875	75.625954	-16.497955
6624.646349	-120.885437	76.327293	-16.848625
6624.649745	-122.288132	77.613091	-17.491524
6624.653068	-123.223251	78.255997	-18.251316
6624.656341	-124.684387	79.074226	-18.952660
6624.659659	-125.561066	79.191124	-19.186440
6624.662987	-126.613098	79.717125	-19.946230
6624.666361	-127.548218	80.886032	-21.348919
6624.669678	-129.126236	81.587379	-22.108709
6624.673091	-130.645828	82.288727	-22.634716
6624.676410	-131.697830	83.632965	-22.985388
6624.679725	-132.983643	84.042084	-24.095850
6624.683411	-134.736984	85.035652	-25.147865
6624.686768	-136.548798	85.327881	-26.024548
6624.690154	-138.068375	85.912338	-27.193455
6624.693029	-139.646408	87.256577	-28.187025
6624.696399	-141.633545	88.308594	-28.888369
6624.699847	-142.802460	88.600822	-29.998831
6624.703438	-145.198715	89.711281	-30.817066
6624.706766	-147.361191	90.646408	-32.219757
6624.710102	-148.237869	91.055527	-33.563995
6624.713486	-150.400345	92.458221	-35.200466
6624.716441	-152.445938	93.393349	-36.720047
6624.720155	-154.549973	95.146698	-38.122734
6624.723470	-157.413788	95.672707	-39.876099
6624.726784	-158.582703	97.016953	-40.694328
6624.730115	-161.095840	98.419640	-42.915253
6624.733532	-163.492111	99.763878	-44.727058
6624.736823	-165.829926	100.640564	-46.538864
6624.740172	-168.167740	101.926361	-48.467560
6624.743088	-170.914673	102.627701	-50.805374
6624.746785	-173.369370	104.088837	-53.201637
6624.750112	-176.350098	106.543549	-55.013443
6624.753477	-178.512558	107.361778	-57.877266
6624.756818	-181.727066	109.641151	-60.682648
6624.760156	-183.947983	110.926949	-63.604912
6624.763463	-186.402695	113.381653	-67.053185
6624.766825	-189.909424	115.018127	-69.566338
6624.770190	-192.305664	117.414375	-72.371712
6624.773496	-195.637054	119.518425	-75.293983
6624.776462	-198.968445	120.979546	-78.683815
6624.780167	-202.066055	123.025139	-82.658096
6624.783495	-205.280533	124.661613	-86.223259
6624.786815	-208.787262	126.765648	-89.729988
6624.790124	-212.293976	129.161896	-94.522507
6624.793513	-215.391571	131.207474	-97.444771
6624.796836	-218.898315	133.837524	-102.529518
6624.800215	-221.995911	136.292221	-106.328468
6624.803572	-225.794846	137.811798	-110.594978
6624.806882	-229.418488	139.915833	-115.445938
6624.810289	-232.632965	141.727646	-119.770897
6624.813601	-236.490356	143.948563	-124.972542
6624.816906	-240.113968	146.286377	-130.115723
6624.820268	-244.322021	148.741074	-136.135590
6624.823600	-248.296326	150.611328	-141.863235
6624.826920	-251.744598	152.656921	-147.649323
6624.830211	-256.011108	154.585617	-153.961411
6624.833565	-260.511383	156.748093	-160.273529
6624.836900	-264.894806	159.319687	-166.293396
6624.840207	-268.810638	160.956161	-173.014603
6624.843494	-272.668030	163.060196	-180.495621
6624.846877	-277.519012	165.164230	-187.684387
6624.850171	-281.259491	167.209824	-195.749847
6624.853571	-285.701324	169.489182	-203.756866
6624.856903	-290.435425	172.060776	-212.114548
6624.860206	-294.701935	173.755692	-220.764465
6624.863569	-298.968445	176.093506	-229.998825
6624.866898	-303.702515	178.080658	-239.174744
6624.870219	-307.969025	180.535355	-248.409103
6624.873624	-312.118622	182.814728	-259.163086
6624.876945	-315.742279	185.035645	-269.917023
6624.880292	-320.184113	186.905899	-280.437164
6624.883594	-324.333740	189.302155	-292.360016
6624.886922	-327.665100	191.932205	-304.516632
6624.890196	-332.457611	193.451782	-316.147278
6624.893590	-335.672119	196.315598	-329.940399
6624.896921	-338.945068	198.185852	-342.681488
6624.900227	-342.218018	200.406769	-356.649902
6624.903524	-345.432495	202.218582	-370.910583
6624.906916	-348.237885	204.264160	-385.580353
6624.910257	-351.452362	206.426651	-400.717712
6624.913626	-353.205719	207.887772	-416.381073
6624.916914	-355.309753	209.290451	-432.804199
6624.920240	-357.004669	210.985367	-448.818237
6624.923568	-358.582703	212.212723	-464.890717
6624.926900	-358.874939	212.446518	-482.482758
6624.930208	-360.219177	212.680298	-500.250153
6624.933571	-360.394501	213.440079	-517.374634
6624.936850	-360.043823	213.323181	-535.083618
6624.940227	-359.810059	213.206314	-553.727661
6624.943534	-358.407379	211.803635	-572.722412
6624.946869	-357.180023	210.926941	-590.898926
6624.950221	-355.075989	209.290451	-610.887207
6624.953605	-352.621277	207.244873	-629.881958
6624.956923	-349.465210	205.199295	-649.870300
6624.960230	-345.607849	201.984818	-668.748108
6624.963532	-341.458221	198.945648	-688.385742
6624.966883	-337.308594	195.263580	-708.490967
6624.970183	-332.399200	191.172409	-727.193481
6624.973548	-326.671539	186.847443	-747.357117
6624.976851	-319.774994	181.587372	-766.293396
6624.980175	-313.229095	176.268845	-785.288147
6624.983550	-306.215668	170.015198	-805.510254
6624.986877	-297.273529	163.819977	-825.031006
6624.990189	-287.104034	157.332550	-842.915283
6624.993571	-276.291656	149.909988	-862.728210
6624.996856	-265.946808	142.545883	-880.145020
6625.000176	-253.907074	134.597305	-898.438416
6625.003494	-242.042679	126.648750	-915.153748
6625.006813	-228.892456	118.700180	-931.985962
6625.010196	-214.748688	109.290474	-947.649292
6625.013541	-200.020462	100.640564	-962.436035
6625.016859	-184.357101	91.581528	-976.053833
6625.020144	-168.518417	82.697838	-989.496277
6625.023480	-151.919922	73.931038	-1001.769775
6625.026802	-133.334305	63.644650	-1013.283447
6625.030124	-115.625366	54.118057	-1022.926941
6625.033886	-97.098183	44.416126	-1031.752197
6625.036781	-78.103447	34.772648	-1038.531860
6625.040126	-58.758041	25.187611	-1044.610229
6625.043499	-38.711281	15.076564	-1049.811768
6625.046807	-19.073641	6.017533	-1053.260010
6625.050188	0.856224	-2.573933	-1055.656250
6625.053585	21.545879	-14.204559	-1056.357666
6625.056891	41.125072	-23.906487	-1055.130249
6625.060205	61.171829	-33.140854	-1053.084717
6625.063520	80.751022	-42.784340	-1049.811768
6625.066818	99.453537	-51.668034	-1044.668579
6625.070162	118.214485	-60.610172	-1038.765625
6625.073946	136.507904	-69.493858	-1030.174072
6625.076899	154.333725	-78.377556	-1022.576233
6625.080175	170.873764	-86.852135	-1011.822327
6625.083899	187.530685	-94.508476	-1001.009949
6625.087207	202.784927	-102.398598	-989.905396
6625.090522	218.097610	-110.054939	-976.053833
6625.093870	232.708939	-117.126823	-961.968445
6625.097214	245.800705	-124.081818	-948.175354
6625.100519	258.015808	-131.095261	-932.921143
6625.103826	270.230865	-137.524261	-915.504395
6625.107156	280.809448	-144.128586	-898.379944
6625.110460	291.388062	-149.096436	-881.197021
6625.113797	302.025146	-154.648743	-863.546509
6625.117186	310.616608	-159.499710	-844.201111
6625.120517	319.032715	-164.350677	-825.440125
6625.123819	325.870850	-168.091171	-806.562256
6625.127177	333.585632	-171.597900	-785.989502
6625.130507	339.488617	-174.987732	-767.111633
6625.133883	345.099365	-177.559326	-747.357117
6625.137171	350.242554	-180.130920	-727.310364
6625.140488	354.976624	-181.884293	-707.263611
6625.143845	359.535339	-183.637650	-686.515503
6625.147176	362.516083	-185.507889	-666.936340
6625.150498	364.970764	-185.975449	-645.895996
6625.153774	366.665680	-187.027481	-626.433655
6625.157137	369.704865	-187.436600	-606.854492
6625.160496	370.932220	-187.144363	-585.755737
6625.163794	371.282867	-186.910583	-567.403870
6625.167124	372.217987	-185.741669	-549.402710
6625.170451	371.282867	-186.033905	-530.057312
6625.173718	371.107544	-183.988327	-511.471649
6625.177121	370.406189	-182.936295	-493.879608
6625.180448	369.120392	-181.650513	-475.001770
6625.183743	367.600800	-180.014023	-458.344849
6625.187033	365.496796	-178.845123	-440.928131
6625.190322	362.749847	-176.857986	-425.498535
6625.193665	360.645844	-175.572174	-408.374054
6625.197453	358.424896	-173.643494	-394.113373
6625.200398	355.327271	-171.364120	-379.151367
6625.204089	351.937469	-169.844543	-364.656921
6625.207403	348.372314	-167.565170	-351.039154
6625.210721	345.391571	-165.519577	-336.486267
6625.214057	341.475739	-164.058441	-323.452942
6625.217448	337.735229	-161.603745	-311.822327
6625.220772	333.585632	-159.207489	-299.256561
6625.224061	329.436005	-158.447693	-287.742828
6625.227364	325.695496	-156.285217	-276.579773
6625.230679	320.961426	-153.947403	-266.468750
6625.234022	316.461121	-151.258926	-256.591461
6625.237386	312.019287	-149.447113	-245.954407
6625.240660	307.402100	-148.044418	-237.187592
6625.243992	303.661591	-146.115738	-228.245468
6625.247310	298.927521	-144.187027	-219.420212
6625.250689	294.076569	-142.083008	-210.653427
6625.253966	290.102264	-140.446533	-202.763290
6625.257349	286.127991	-138.576279	-194.814728
6625.260614	281.569244	-136.589127	-187.567505
6625.263923	277.419617	-134.777328	-179.385147
6625.267247	273.211578	-132.205734	-173.599060
6625.270594	268.535950	-130.218582	-166.819397
6625.273924	264.620117	-128.640564	-161.091751
6625.277224	260.412048	-126.770309	-154.253647
6625.280548	257.197540	-124.607826	-148.058441
6625.283845	252.638809	-122.796028	-142.213898
6625.287141	249.424301	-120.750435	-137.713608
6625.290473	244.982468	-118.821747	-131.518417
6625.294226	242.177094	-117.126823	-127.777916
6625.297619	238.787262	-114.672119	-121.465805
6625.300497	234.812958	-112.334305	-117.900650
6625.303798	231.715378	-110.990067	-112.173004
6625.307151	227.857986	-108.886032	-107.789604
6625.310885	224.760376	-107.015778	-104.049095
6625.314222	221.253647	-105.496193	-100.074814
6625.317575	217.922272	-103.333725	-95.691414
6625.320853	215.000000	-101.755692	-92.243134
6625.324146	211.376389	-99.827003	-88.385742
6625.327444	209.097015	-98.482758	-85.112801
6625.330792	205.824081	-96.203384	-81.722969
6625.334128	203.077148	-94.683807	-78.976036
6625.337410	200.096436	-93.222679	-75.878433
6625.340727	196.881943	-91.936882	-73.014618
6625.344010	195.479248	-90.709526	-70.735245
6625.347335	191.797195	-89.014603	-66.760956
6625.350636	189.225601	-88.021042	-64.656929
6625.353989	186.361786	-86.267677	-61.442429
6625.357311	184.374634	-85.390999	-59.279953
6625.360698	181.803040	-83.929863	-57.877266
6625.363989	178.997665	-83.345413	-54.896553
6625.367288	176.776749	-81.650497	-53.552307
6625.370650	175.432495	-80.598480	-52.091171
6625.373956	172.159546	-80.364693	-50.045586
6625.377292	170.756866	-79.020454	-47.883110
6625.380612	168.419052	-78.377556	-46.538864
6625.383991	166.431915	-77.033310	-45.486847
6625.387337	164.152542	-76.448853	-42.798363
6625.390651	162.983627	-76.273521	-41.980125
6625.393957	161.113388	-74.578606	-40.811218
6625.397260	159.126251	-74.578606	-39.642319
6625.401035	157.548218	-72.825249	-38.181183
6625.404360	155.327301	-72.766808	-37.187614
6625.407658	153.749268	-71.890121	-36.778488
6625.410991	152.814133	-71.305672	-35.317360
6625.414271	150.593216	-70.428986	-34.849792
6625.417600	149.891876	-69.435417	-33.213326
6625.420947	148.138519	-68.967857	-31.985973
6625.424252	146.794266	-68.383400	-30.817066
6625.427561	145.683807	-67.039154	-30.057276
6625.430827	144.222672	-66.396263	-29.355932
6625.434178	142.819992	-65.402687	-29.531267
6625.437461	141.417297	-65.168907	-28.245470
6625.440825	140.540619	-64.876678	-26.199884
6625.444119	139.839279	-64.058449	-25.732321
6625.447426	138.495026	-63.357098	-25.030975
6625.450674	137.443024	-62.480423	-24.154295
6625.454433	136.507904	-61.077732	-22.459381
6625.457760	135.689651	-60.843952	-21.991817
6625.461077	134.754517	-60.843952	-21.173584
6625.464415	133.819397	-59.850380	-21.056694
6625.467684	133.059601	-59.558155	-19.946230
6625.470993	132.182922	-59.149036	-19.537113
6625.474297	130.955566	-58.330799	-18.777323
6625.477613	130.604919	-58.272354	-18.485096
6625.480949	129.494446	-57.220341	-17.257744
6625.484219	128.559326	-56.869667	-17.666862
6625.487600	127.682640	-56.518993	-17.199299
6625.490887	126.864410	-56.518993	-16.497955
6625.494179	126.630630	-56.402103	-16.147282
6625.497478	126.104614	-56.109879	-15.971947
6625.500742	124.994156	-55.291641	-15.445938
6625.504134	124.877266	-55.466980	-14.861485
6625.507418	124.351250	-55.291641	-14.335476
6625.510791	123.942139	-54.414963	-14.218586
6625.514518	123.474571	-54.707188	-14.335476
6625.517437	123.065460	-54.356518	-14.569258
6625.521209	122.773232	-54.239628	-13.926359
6625.524518	122.714783	-54.239628	-13.809468
6625.527457	121.896553	-54.940971	-13.225015
6625.531166	122.305664	-54.356518	-13.867913
6625.534525	121.487442	-54.122738	-14.101695
6625.537918	121.195206	-54.298073	-14.510813
6625.541218	121.019875	-54.181183	-14.452367
6625.544579	121.312096	-54.414963	-13.458797
6625.547874	120.669197	-54.298073	-14.043249
6625.551158	120.669197	-53.596729	-14.510813
6625.554535	120.844528	-53.888954	-14.101695
6625.557833	120.376968	-53.830509	-14.101695
6625.561235	120.902977	-54.005844	-14.803039
6625.564573	121.370544	-54.122738	-14.335476
6625.567876	120.318535	-54.122738	-15.153711
6625.571232	121.721222	-53.772064	-14.686149
6625.574559	120.902977	-53.655174	-14.393922
6625.577881	121.312096	-54.005844	-14.861485
6625.581236	121.370544	-53.947399	-14.803039
6625.584519	121.955002	-53.596729	-15.212156
6625.587869	122.188782	-53.713619	-15.270601
6625.591172	122.247223	-53.772064	-15.445938
6625.594487	122.422562	-53.830509	-14.510813
6625.597798	122.831680	-54.239628	-15.387493
6625.601120	122.714783	-53.538284	-15.445938
6625.604419	123.357689	-53.538284	-14.803039
6625.607684	123.708359	-53.713619	-16.322618
6625.611024	124.234367	-54.122738	-15.913501
6625.614362	124.818817	-54.414963	-15.796611
6625.617661	124.760376	-54.181183	-15.971947
6625.620967	125.753937	-54.298073	-15.796611
6625.624324	126.046173	-54.531853	-16.322618
6625.627642	127.098190	-54.648743	-16.147282
6625.630986	127.390411	-55.350090	-17.140854
6625.634298	127.448860	-55.525425	-17.140854
6625.637612	128.091751	-55.817650	-17.491524
6625.640941	129.494446	-56.402103	-17.549971
6625.644721	130.721802	-56.577442	-17.959087
6625.647609	131.014023	-56.986557	-18.309761
6625.651357	131.773819	-57.512566	-19.654003
6625.654701	132.825836	-57.687901	-19.595558
6625.657989	133.644073	-58.097019	-20.296902
6625.661342	134.871429	-58.564583	-20.413792
6625.664647	135.748108	-59.850380	-21.348919
6625.668003	136.507904	-59.791935	-22.400936
6625.671302	137.559906	-60.493282	-22.342489
6625.674627	138.728806	-61.019287	-23.102280
6625.677938	140.423721	-61.720631	-24.095850
6625.681250	141.592636	-62.538864	-25.323202
6625.684594	142.060196	-62.480423	-26.141438
6625.687924	143.229111	-63.941559	-27.076563
6625.691239	144.924026	-64.233780	-26.959673
6625.694530	146.385162	-64.818230	-28.537697
6625.697828	147.554062	-65.694916	-29.648159
6625.701142	148.722977	-65.636467	-30.232613
6625.704437	150.300995	-66.513153	-31.985973
6625.707778	151.820572	-67.272934	-32.921097
6625.711127	153.515488	-68.441841	-33.388660
6625.714447	155.151947	-68.967857	-34.908241
6625.717746	157.022217	-68.967857	-35.609585
6625.721075	159.067795	-70.312096	-37.304504
6625.724381	160.528931	-70.779655	-38.648743
6625.728130	162.983627	-71.188774	-39.759209
6625.731427	164.327866	-71.948563	-41.512566
6625.734692	166.607254	-72.533020	-42.798363
6625.738045	168.886612	-73.117477	-44.084160
6625.741405	170.873764	-73.994148	-45.954414
6625.744774	173.328461	-74.753944	-48.526009
6625.748063	175.607834	-75.396843	-49.987144
6625.751376	176.659851	-76.624199	-50.630043
6625.754692	178.705429	-77.267090	-52.967857
6625.757992	181.277023	-78.202217	-53.844536
6625.761365	183.322617	-79.137344	-55.656342
6625.764730	186.069550	-80.423141	-57.585037
6625.768020	188.758041	-81.708939	-59.630623
6625.771418	191.095856	-82.001167	-62.845116
