time (s)	det(V)
8870.644196	-1.313393	
8870.645756	-1.257879	
8870.647432	-1.237564	
8870.648982	-1.176909	
8870.650692	-1.130491	
8870.652192	-1.099948	
8870.653944	-0.986632	
8870.655423	-0.897316	
8870.657199	-0.849576	
8870.658675	-0.784245	
8870.660454	-0.728569	
8870.661936	-0.687046	
8870.663710	-0.667395	
8870.665202	-0.582224	
8870.666983	-0.522138	
8870.668481	-0.459095	
8870.670212	-0.406074	
8870.671721	-0.349247	
8870.673450	-0.325983	
8870.674973	-0.278296	
8870.676704	-0.241344	
8870.678244	-0.204263	
8870.679945	-0.149615	
8870.681527	-0.066656	
8870.683021	-0.013426	
8870.684691	0.048071	
8870.686183	0.065848	
8870.687815	0.142084	
8870.689343	0.181654	
8870.690982	0.194778	
8870.692461	0.251734	
8870.694111	0.283937	
8870.695585	0.306729	
8870.697226	0.360543	
8870.698711	0.413931	
8870.700424	0.451418	
8870.701905	0.517829	
8870.703588	0.554386	
8870.705089	0.626014	
8870.706728	0.647900	
8870.708272	0.674829	
8870.709891	0.716276	
8870.711466	0.767525	
8870.713046	0.794019	
8870.714642	0.857485	
8870.716293	0.897740	
8870.717897	0.946543	
8870.719529	0.985545	
8870.721147	1.080658	
8870.722776	1.093621	
8870.724412	1.124861	
8870.726003	1.148495	
8870.727661	1.191626	
8870.729260	1.224521	
8870.730923	1.272672	
8870.732505	1.309692	
8870.734179	1.351542	
8870.735739	1.371902	
8870.737458	1.431718	
8870.738999	1.445048	
8870.740715	1.492199	
8870.742229	1.507926	
8870.743969	1.567299	
8870.745458	1.596468	
8870.747238	1.605057	
8870.748723	1.606084	
8870.750508	1.606096	
8870.751981	1.606096	
8870.753762	1.606056	
8870.755239	1.606128	
8870.757004	1.606096	
8870.758491	1.606201	
8870.760239	1.606096	
8870.761741	1.606221	
8870.763497	1.606165	
8870.765016	1.606080	
8870.766747	1.606225	
8870.768273	1.606015	
8870.769985	1.606285	
8870.771534	1.605995	
8870.773223	1.606197	
8870.774770	1.605991	
8870.776460	1.606261	
8870.778043	1.605979	
8870.779719	1.606124	
8870.781307	1.605995	
8870.782979	1.606362	
8870.784577	1.606116	
8870.786240	1.606317	
8870.787856	1.605999	
8870.789463	1.606370	
8870.791100	1.606088	
8870.792707	1.606305	
8870.794350	1.606112	
8870.795829	1.606116	
8870.797455	1.605963	
8870.798942	1.606092	
8870.800575	1.606152	
8870.802091	1.606076	
8870.803713	1.606132	
8870.805221	1.606032	
8870.806813	1.606197	
8870.808332	1.606011	
8870.809895	1.606060	
8870.811479	1.606019	
8870.813074	1.606181	
8870.814666	1.606076	
8870.816231	1.606237	
8870.817846	1.606068	
8870.819384	1.606221	
8870.821068	1.606080	
8870.822544	1.606104	
8870.824281	1.606027	
8870.825855	1.606205	
8870.827535	1.606120	
8870.829107	1.606241	
8870.830794	1.606040	
8870.832351	1.606185	
8870.834076	1.606116	
8870.835621	1.606197	
8870.837341	1.606096	
8870.838849	1.606221	
8870.840606	1.606189	
8870.842089	1.606108	
8870.843842	1.606108	
8870.845330	1.606128	
8870.847107	1.606128	
8870.848587	1.606189	
8870.850371	1.606229	
8870.851852	1.606116	
8870.853623	1.606189	
8870.855119	1.606015	
8870.856857	1.606233	
8870.858374	1.606080	
8870.860108	1.606169	
8870.861638	1.606181	
8870.863365	1.606297	
8870.864894	1.606019	
8870.866602	1.606285	
8870.868154	1.606181	
8870.869831	1.606305	
8870.871399	1.606036	
8870.873059	1.606241	
8870.874652	1.606116	
8870.876279	1.606302	
8870.877880	1.606084	
8870.879524	1.606338	
8870.881138	1.606064	
8870.882772	1.606245	
8870.884420	1.606056	
8870.886016	1.606217	
8870.887684	1.606035	
8870.889274	1.606245	
8870.890958	1.606120	
8870.892545	1.606165	
8870.894215	1.606120	
8870.895790	1.606269	
8870.897504	1.606007	
8870.899044	1.606189	
8870.900757	1.606128	
8870.902297	1.606237	
8870.904023	1.606096	
8870.905506	1.606024	
8870.907065	1.606140	
8870.908588	1.605995	
8870.910179	1.606104	
8870.911724	1.606048	
8870.913279	1.606209	
8870.914870	1.606064	
8870.916359	1.606148	
8870.918027	1.606088	
8870.919522	1.606116	
8870.921146	1.605975	
8870.922669	1.606193	
8870.924350	1.606084	
8870.925824	1.606148	
8870.927534	1.606193	
8870.929012	1.606241	
8870.930746	1.606080	
8870.932228	1.606209	
8870.933958	1.606173	
8870.935432	1.606144	
8870.937201	1.606176	
8870.938681	1.606164	
8870.940457	1.606176	
8870.941936	1.606144	
8870.943708	1.606165	
8870.945194	1.606084	
8870.946981	1.606152	
8870.948471	1.606007	
8870.950231	1.606205	
8870.951733	1.606084	
8870.953461	1.606265	
8870.954977	1.606120	
8870.956686	1.606293	
8870.958218	1.605975	
8870.959907	1.606245	
8870.961471	1.605979	
8870.963155	1.606261	
8870.964722	1.605971	
8870.966396	1.606237	
8870.967966	1.606060	
8870.969609	1.606313	
8870.971195	1.605915	
8870.972828	1.606225	
8870.974459	1.605903	
8870.976076	1.606144	
8870.977705	1.605750	
8870.979302	1.605891	
8870.980948	1.604167	
8870.982533	1.601258	
8870.984219	1.594059	
8870.985778	1.550509	
8870.987492	1.518065	
8870.989027	1.520240	
8870.990740	1.481311	
8870.992311	1.465786	
8870.993994	1.467626	
8870.995514	1.442800	
8870.997270	1.430252	
8870.998751	1.428250	
8871.000521	1.429797	
8871.001998	1.399330	
8871.003766	1.403677	
8871.005251	1.398279	
8871.007029	1.376345	
8871.008504	1.369730	
8871.010249	1.355208	
8871.011758	1.346108	
8871.013518	1.326506	
8871.015033	1.362270	
8871.016760	1.336432	
8871.018279	1.331699	
8871.019829	1.327836	
8871.021456	1.333451	
8871.022939	1.315525	
8871.024585	1.302465	
8871.026085	1.298284	
8871.027751	1.290066	
8871.029237	1.272660	
8871.030866	1.253134	
8871.032339	1.276297	
8871.033973	1.252313	
8871.035450	1.228328	
8871.037151	1.226358	
8871.038632	1.231059	
8871.040353	1.205943	
8871.041847	1.186925	
8871.043519	1.192089	
8871.045023	1.188355	
8871.046658	1.145937	
8871.048192	1.133630	
8871.049885	1.138972	
8871.051433	1.107470	
8871.053118	1.088626	
8871.054697	1.112764	
8871.056357	1.060786	
8871.057935	1.048697	
8871.059578	1.005486	
8871.061174	1.017115	
8871.062821	0.965311	
8871.064438	0.959792	
8871.066073	0.936335	
8871.067738	0.925269	
8871.069307	0.897917	
8871.070983	0.880914	
8871.072561	0.852840	
8871.074249	0.809431	
8871.075841	0.793697	
8871.077499	0.798434	
8871.079050	0.736523	
8871.080741	0.712679	
8871.082283	0.710560	
8871.083992	0.692658	
8871.085496	0.639968	
8871.087251	0.621796	
8871.088730	0.604249	
8871.090512	0.583056	
8871.091994	0.549351	
8871.093776	0.529987	
8871.095268	0.505430	
8871.097071	0.468454	
8871.098547	0.455418	
8871.100320	0.444143	
8871.101808	0.424614	
8871.103562	0.395034	
8871.105063	0.381632	
8871.106800	0.358561	
8871.108322	0.323720	
8871.110044	0.321610	
8871.111568	0.315503	
8871.113267	0.271840	
8871.114813	0.273439	
8871.116491	0.254405	
8871.118049	0.260339	
8871.119716	0.226320	
8871.121297	0.231113	
8871.122958	0.202307	
8871.124563	0.194504	
8871.126203	0.182669	
8871.127809	0.183551	
8871.129334	0.172473	
8871.130965	0.170378	
8871.132457	0.170697	
8871.134108	0.174765	
8871.135598	0.151860	
8871.137259	0.138051	
8871.138738	0.168090	
8871.140374	0.126433	
8871.141863	0.151192	
8871.143458	0.124504	
8871.144980	0.136093	
8871.146524	0.110824	
8871.148099	0.126417	
8871.149699	0.132291	
8871.151296	0.120024	
8871.152863	0.111335	
8871.154476	0.128435	
8871.156001	0.132097	
8871.157681	0.112105	
8871.159160	0.097518	
8871.160892	0.120137	
8871.162480	0.098980	
8871.164156	0.111400	
8871.165728	0.116838	
8871.167429	0.132673	
8871.168964	0.097458	
8871.170676	0.102618	
8871.172207	0.138909	
8871.173929	0.085892	
8871.175414	0.073795	
8871.177165	0.078915	
8871.178648	0.084309	
8871.180431	0.043692	
8871.181919	0.057082	
8871.183702	0.048868	
8871.185177	0.058536	
8871.186950	0.026962	
8871.188442	0.042745	
8871.190186	0.022342	
8871.191693	-0.003428	
8871.193405	-0.022647	
8871.194934	-0.022252	
8871.196644	-0.053608	
8871.198183	-0.088083	
8871.199881	-0.073512	
8871.201438	-0.099596	
8871.203123	-0.111398	
8871.204695	-0.112116	
8871.206357	-0.152197	
8871.207948	-0.168206	
8871.209583	-0.199510	
8871.211191	-0.212811	
8871.212834	-0.251020	
8871.214434	-0.265732	
8871.216053	-0.270988	
8871.217689	-0.264237	
8871.219304	-0.316110	
8871.220983	-0.321830	
8871.222558	-0.356695	
8871.224254	-0.396507	
8871.225818	-0.427122	
8871.227508	-0.438377	
8871.229077	-0.451369	
8871.230749	-0.471240	
8871.232302	-0.480767	
8871.234025	-0.510259	
8871.235568	-0.544209	
8871.237296	-0.567308	
8871.238795	-0.569100	
8871.240562	-0.596529	
8871.242050	-0.603881	
8871.243578	-0.633219	
8871.245102	-0.656664	
8871.246660	-0.691706	
8871.248208	-0.695706	
8871.249698	-0.704863	
8871.251345	-0.718760	
8871.252833	-0.725351	
8871.254479	-0.734777	
8871.256003	-0.766331	
8871.257646	-0.789893	
8871.259122	-0.808979	
8871.260837	-0.816943	
8871.262317	-0.817805	
8871.264029	-0.835791	
8871.265517	-0.842837	
8871.267221	-0.847816	
8871.268712	-0.855341	
8871.270410	-0.873428	
8871.271886	-0.880735	
8871.273678	-0.887865	
8871.275159	-0.905312	
8871.276916	-0.917804	
8871.278416	-0.926126	
8871.280168	-0.945329	
8871.281686	-0.937180	
8871.283437	-0.921816	
8871.284955	-0.947174	
8871.286679	-0.953052	
8871.288204	-0.920466	
8871.289884	-0.948886	
8871.291431	-0.969503	
8871.293108	-0.969499	
8871.294673	-0.941510	
8871.296326	-0.985907	
8871.297919	-0.964355	
8871.299574	-0.973628	
8871.301158	-0.978881	
8871.302795	-1.002600	
8871.304401	-0.965846	
8871.306020	-0.997605	
8871.307679	-1.027547	
8871.309263	-1.026919	
8871.310931	-1.024256	
8871.312523	-1.050839	
8871.314189	-1.056354	
8871.315765	-1.055464	
8871.317455	-1.061603	
8871.319007	-1.083984	
8871.320702	-1.096879	
8871.322255	-1.101245	
8871.323968	-1.143406	
8871.325475	-1.162895	
8871.327237	-1.162931	
8871.328712	-1.183165	
8871.330485	-1.233753	
8871.331971	-1.257468	
8871.333753	-1.255615	
8871.335227	-1.281920	
8871.337008	-1.309735	
8871.338486	-1.305526	
8871.340251	-1.363453	
8871.341750	-1.399833	
8871.343475	-1.414415	
8871.344993	-1.421972	
8871.346739	-1.492319	
8871.348276	-1.493245	
8871.350000	-1.528525	
8871.351528	-1.554814	
8871.353049	-1.603589	
8871.354651	-1.628955	
8871.356141	-1.644199	
8871.357765	-1.648275	
8871.359291	-1.648557	
8871.360924	-1.648469	
8871.362407	-1.648549	
8871.364059	-1.648497	
8871.365538	-1.648505	
8871.367174	-1.648541	
8871.368656	-1.648577	
8871.370367	-1.648533	
8871.371850	-1.648577	
8871.373524	-1.648525	
8871.375023	-1.648597	
8871.376664	-1.648436	
8871.378189	-1.648553	
8871.379813	-1.648501	
8871.381387	-1.648646	
8871.382967	-1.648541	
8871.384557	-1.648638	
8871.386215	-1.648432	
8871.387810	-1.648577	
8871.389445	-1.648428	
8871.391053	-1.648630	
8871.392660	-1.648456	
8871.394336	-1.648614	
8871.395921	-1.648493	
8871.397582	-1.648497	
8871.399173	-1.648549	
8871.400840	-1.648605	
8871.402410	-1.648521	
8871.404098	-1.648585	
8871.405665	-1.648497	
8871.407379	-1.648638	
8871.408924	-1.648456	
8871.410632	-1.648594	
8871.412154	-1.648473	
8871.413865	-1.648569	
8871.415345	-1.648537	
8871.417116	-1.648553	
8871.418603	-1.648485	
8871.420385	-1.648485	
8871.421864	-1.648561	
8871.423630	-1.648541	
8871.425107	-1.648581	
8871.426848	-1.648553	
8871.428346	-1.648581	
8871.430081	-1.648485	
8871.431597	-1.648597	
8871.433290	-1.648440	
8871.434840	-1.648545	
8871.436538	-1.648545	
8871.438090	-1.648602	
8871.439773	-1.648444	
8871.441337	-1.648577	
8871.443010	-1.648505	
8871.444584	-1.648581	
8871.446219	-1.648465	
8871.447814	-1.648545	
8871.449433	-1.648465	
8871.451046	-1.648638	
8871.452669	-1.648481	
8871.454315	-1.648662	
8871.455932	-1.648505	
8871.457609	-1.648513	
8871.459190	-1.648509	
8871.460872	-1.648513	
8871.462434	-1.648416	
8871.464121	-1.648585	
8871.465592	-1.648670	
8871.467240	-1.648597	
8871.468720	-1.648614	
8871.470358	-1.648602	
8871.471862	-1.648553	
8871.473464	-1.648541	
8871.474990	-1.648622	
8871.476537	-1.648577	
8871.478126	-1.648743	
8871.479619	-1.648501	
8871.481256	-1.648666	
8871.482820	-1.648525	
8871.484437	-1.648646	
8871.485968	-1.648545	
8871.487640	-1.648654	
8871.489122	-1.648569	
8871.490842	-1.648573	
8871.492313	-1.648598	
8871.494034	-1.648505	
8871.495578	-1.648589	
8871.497304	-1.648598	
8871.498823	-1.648509	
8871.500554	-1.648614	
8871.502032	-1.648509	
8871.503802	-1.648497	
8871.505296	-1.648553	
8871.507092	-1.648561	
8871.508572	-1.648606	
8871.510339	-1.648557	
8871.511821	-1.648577	
8871.513602	-1.648553	
8871.515091	-1.648565	
8871.516876	-1.648634	
8871.518382	-1.648622	
8871.520143	-1.648501	
8871.521653	-1.648549	
8871.523383	-1.648585	
8871.524913	-1.648626	
8871.526641	-1.648521	
8871.528183	-1.648549	
8871.529882	-1.648501	
8871.531424	-1.648589	
8871.533101	-1.648565	
8871.534671	-1.648662	
8871.536347	-1.648505	
8871.537925	-1.648602	
8871.539577	-1.648497	
8871.541158	-1.648630	
8871.542796	-1.648481	
8871.544424	-1.648618	
8871.546047	-1.648537	
8871.547673	-1.648726	
8871.549283	-1.648461	
8871.550940	-1.648654	
8871.552531	-1.648517	
8871.554178	-1.648537	
8871.555751	-1.648561	
8871.557446	-1.648565	
8871.558996	-1.648469	
8871.560695	-1.648541	
8871.562245	-1.648461	
8871.563941	-1.648569	
8871.565447	-1.648440	
8871.567196	-1.648561	
8871.568688	-1.648541	
8871.570477	-1.648529	
8871.571957	-1.648521	
8871.573726	-1.648622	
8871.575211	-1.648513	
8871.576708	-1.648501	
8871.578293	-1.648610	
8871.579846	-1.648501	
8871.581444	-1.648489	
8871.582941	-1.648626	
8871.584619	-1.648602	
8871.586108	-1.648553	
8871.587722	-1.648440	
8871.589243	-1.648436	
8871.590879	-1.648465	
8871.592351	-1.648461	
8871.594078	-1.648316	
8871.595548	-1.648344	
8871.597256	-1.647586	
8871.598744	-1.618099	
8871.600455	-1.551797	
8871.601951	-1.501439	
8871.603659	-1.475666	
8871.605158	-1.417384	
8871.606836	-1.386684	
8871.608339	-1.358083	
8871.610045	-1.322485	
8871.611568	-1.283374	
8871.613263	-1.263829	
8871.614811	-1.236960	
8871.616510	-1.195246	
8871.618063	-1.138274	
8871.619740	-1.139309	
8871.621316	-1.094027	
8871.622987	-1.065857	
8871.624574	-1.062964	
8871.626230	-1.037953	
8871.627822	-1.005098	
8871.629485	-0.968915	
8871.631099	-0.901932	
8871.632710	-0.849556	
8871.634354	-0.747829	
8871.635972	-0.738266	
8871.637626	-0.682348	
8871.639229	-0.656869	
8871.640893	-0.623410	
8871.642483	-0.616719	
8871.644159	-0.591425	
8871.645711	-0.537736	
8871.647424	-0.468968	
8871.648971	-0.424081	
8871.650674	-0.321810	
8871.652210	-0.255467	
8871.653929	-0.221307	
8871.655436	-0.178925	
8871.657184	-0.135653	
8871.658657	-0.102315	
8871.660430	-0.065677	
8871.661912	-0.004938	
8871.663677	0.069767	
8871.665158	0.153834	
8871.666937	0.236954	
8871.668432	0.317448	
8871.670204	0.362493	
8871.671703	0.418475	
8871.673430	0.454443	
8871.674943	0.480434	
8871.676665	0.526845	
8871.678195	0.588333	
8871.679889	0.616620	
8871.681434	0.686531	
8871.683117	0.702270	
8871.684684	0.750247	
8871.686358	0.796428	
8871.687954	0.884390	
8871.689450	0.935574	
8871.691082	0.941822	
8871.692611	1.001155	
8871.694249	1.043050	
8871.695741	1.070462	
8871.697374	1.100945	
8871.698854	1.161639	
8871.700498	1.230781	
8871.701981	1.280141	
8871.703625	1.322716	
8871.705104	1.367507	
8871.706773	1.355703	
8871.708276	1.376792	
8871.709929	1.395342	
8871.711472	1.443416	
8871.713083	1.462075	
8871.714653	1.501412	
8871.716217	1.554803	
8871.717809	1.593991	
8871.719433	1.605230	
8871.721065	1.605935	
8871.722690	1.606197	
8871.724322	1.605999	
8871.725929	1.606160	
8871.727569	1.605995	
8871.729169	1.606193	
8871.730857	1.606068	
8871.732427	1.606245	
8871.734123	1.606156	
8871.735679	1.606160	
8871.737386	1.606019	
8871.738946	1.606112	
8871.740664	1.606088	
8871.742214	1.606241	
8871.743943	1.606108	
8871.745464	1.606172	
8871.747212	1.606124	
8871.748707	1.606148	
8871.750479	1.606120	
8871.751962	1.606088	
8871.753736	1.606221	
8871.755224	1.606173	
8871.757018	1.606173	
8871.758497	1.606088	
8871.760279	1.606209	
8871.761758	1.606120	
8871.763528	1.606128	
8871.765033	1.606100	
8871.766796	1.606161	
8871.768305	1.606168	
8871.770067	1.606281	
8871.771587	1.606185	
8871.773316	1.606265	
8871.774848	1.606104	
8871.776562	1.606313	
8871.778097	1.606161	
8871.779772	1.606273	
8871.781335	1.606019	
8871.783001	1.606273	
8871.784585	1.606076	
8871.786252	1.606221	
8871.787837	1.606003	
8871.789486	1.606169	
8871.791081	1.606019	
8871.792719	1.606209	
8871.794340	1.606104	
8871.795943	1.606205	
8871.797591	1.606092	
8871.799069	1.605995	
8871.800655	1.606060	
8871.802149	1.606108	
8871.803784	1.606181	
8871.805274	1.606100	
8871.806896	1.606164	
8871.808407	1.606072	
8871.809976	1.606124	
8871.811515	1.606044	
8871.813051	1.606169	
8871.814644	1.606064	
8871.816222	1.606076	
8871.817838	1.606084	
8871.819393	1.606209	
8871.821029	1.606072	
8871.822519	1.606213	
8871.824208	1.606124	
8871.825695	1.606148	
8871.827425	1.606116	
8871.828894	1.606108	
8871.830616	1.606124	
8871.832135	1.606213	
8871.833868	1.606140	
8871.835357	1.606120	
8871.837135	1.606185	
8871.838619	1.606193	
8871.840400	1.606168	
8871.841893	1.606161	
8871.843668	1.606205	
8871.845146	1.606043	
8871.846942	1.606233	
8871.848421	1.606092	
8871.850162	1.606253	
8871.851664	1.606189	
8871.853414	1.606169	
8871.854932	1.606072	
8871.856671	1.606201	
8871.858198	1.606027	
8871.859911	1.606245	
8871.861441	1.606120	
8871.863118	1.606293	
8871.864678	1.606048	
8871.866362	1.606213	
8871.867936	1.606056	
8871.869594	1.606173	
8871.871189	1.606068	
8871.872846	1.606285	
8871.874435	1.606060	
8871.876067	1.606229	
8871.877682	1.606003	
8871.879306	1.606233	
8871.880984	1.606124	
8871.882577	1.606305	
8871.884242	1.606100	
8871.885835	1.606056	
8871.887507	1.606032	
8871.889091	1.606265	
8871.890767	1.606076	
8871.892354	1.606277	
8871.894056	1.606108	
8871.895594	1.606164	
8871.897276	1.606088	
8871.898795	1.606205	
8871.900531	1.606084	
8871.902023	1.606253	
8871.903777	1.606108	
8871.905266	1.606209	
8871.907060	1.606205	
8871.908541	1.606132	
8871.910299	1.606156	
8871.911806	1.606015	
8871.913299	1.606140	
8871.914875	1.606084	
8871.916427	1.606253	
8871.918037	1.606048	
8871.919522	1.606096	
8871.921189	1.606108	
8871.922682	1.606132	
8871.924341	1.605983	
8871.925831	1.606148	
8871.927529	1.606027	
8871.929001	1.606249	
8871.930710	1.606108	
8871.932181	1.606096	
8871.933890	1.606152	
8871.935379	1.606060	
8871.937079	1.606128	
8871.938576	1.606104	
8871.940296	1.606156	
8871.941769	1.606176	
8871.943541	1.606209	
8871.945039	1.605979	
8871.946774	1.606233	
8871.948287	1.606031	
8871.950025	1.606217	
8871.951555	1.606056	
8871.953289	1.606225	
8871.954826	1.606060	
8871.956535	1.606205	
8871.958076	1.606092	
8871.959784	1.606229	
8871.961336	1.606003	
8871.963023	1.606193	
8871.964595	1.605999	
8871.966242	1.606168	
8871.967837	1.605983	
8871.969489	1.606265	
8871.971104	1.605862	
8871.972748	1.606205	
8871.974347	1.604980	
8871.975969	1.597326	
8871.977628	1.564604	
8871.979212	1.515958	
8871.980879	1.498902	
8871.982460	1.458398	
8871.984147	1.451501	
8871.985725	1.415722	
8871.987397	1.391934	
8871.988957	1.371120	
8871.990670	1.355228	
8871.992218	1.313717	
8871.993938	1.304927	
8871.995442	1.288414	
8871.997187	1.256402	
8871.998672	1.246975	
8872.000453	1.237799	
8872.001949	1.219176	
8872.003734	1.214016	
8872.005212	1.207135	
8872.006995	1.167710	
8872.008477	1.144048	
8872.010254	1.149377	
8872.011733	1.152890	
8872.013494	1.105110	
8872.014998	1.116280	
8872.016756	1.108308	
8872.018271	1.140519	
8872.020015	1.092131	
8872.021539	1.115797	
8872.023247	1.089971	
8872.024789	1.082310	
8872.026311	1.052951	
8872.027955	1.052911	
8872.029438	1.025398	
8872.031073	1.024125	
8872.032592	1.032306	
8872.034232	1.030002	
8872.035705	1.008901	
8872.037345	1.011069	
8872.038824	1.024866	
8872.040526	1.004756	
8872.042006	0.966612	
8872.043715	0.978713	
8872.045197	0.979753	
8872.046913	0.947127	
8872.048410	0.953548	
8872.050096	0.936303	
8872.051604	0.956006	
8872.053258	0.911243	
8872.054802	0.926917	
8872.056521	0.898674	
8872.058061	0.905410	
8872.059752	0.850979	
8872.061312	0.845706	
8872.062995	0.824686	
8872.064572	0.831849	
8872.066242	0.823571	
8872.067818	0.812388	
8872.069460	0.785362	
8872.071066	0.781269	
8872.072707	0.763677	
8872.074324	0.742593	
8872.075939	0.708602	
8872.077607	0.729320	
8872.079211	0.675236	
8872.080870	0.661431	
