time (s)	det(V)
6845.210587	1.628050	
6845.212163	1.627921	
6845.213677	1.628009	
6845.215236	1.628158	
6845.216709	1.628038	
6845.218341	1.627321	
6845.219833	1.615062	
6845.221427	1.527092	
6845.222915	1.463545	
6845.224497	1.411286	
6845.226005	1.373524	
6845.227574	1.328101	
6845.229096	1.283520	
6845.230651	1.248779	
6845.232189	1.208641	
6845.233707	1.173107	
6845.235256	1.146585	
6845.236800	1.097431	
6845.238378	1.054751	
6845.239856	1.026186	
6845.241436	0.987889	
6845.242959	0.953238	
6845.244559	0.915174	
6845.246047	0.886315	
6845.247608	0.855881	
6845.249134	0.841665	
6845.250705	0.804133	
6845.252224	0.782312	
6845.253757	0.749002	
6845.255321	0.723623	
6845.256841	0.694148	
6845.258434	0.665442	
6845.259935	0.638831	
6845.261505	0.616232	
6845.263028	0.599640	
6845.264630	0.582157	
6845.266120	0.558462	
6845.267682	0.540774	
6845.269204	0.526252	
6845.270765	0.498400	
6845.272292	0.468151	
6845.273821	0.459176	
6845.275391	0.444964	
6845.276905	0.425818	
6845.278466	0.409962	
6845.279963	0.398264	
6845.281578	0.378980	
6845.283079	0.370614	
6845.284675	0.357957	
6845.286182	0.342049	
6845.287759	0.328066	
6845.289289	0.309218	
6845.290851	0.293318	
6845.292375	0.290462	
6845.293935	0.274703	
6845.295473	0.260681	
6845.297016	0.248845	
6845.298569	0.242461	
6845.300102	0.233562	
6845.301677	0.224031	
6845.303168	0.212164	
6845.304743	0.205469	
6845.306274	0.186161	
6845.307865	0.181210	
6845.309371	0.166217	
6845.310926	0.162462	
6845.312465	0.159445	
6845.314038	0.149080	
6845.315571	0.145306	
6845.317103	0.134030	
6845.318666	0.122026	
6845.320195	0.132149	
6845.321772	0.120866	
6845.323267	0.118791	
6845.324841	0.106509	
6845.326362	0.100797	
6845.327962	0.086089	
6845.329468	0.087717	
6845.331035	0.086460	
6845.332573	0.081034	
6845.334148	0.086319	
6845.335667	0.077166	
6845.337197	0.067692	
6845.338757	0.069738	
6845.340282	0.069299	
6845.341831	0.057186	
6845.343353	0.048892	
6845.344943	0.050648	
6845.346442	0.052489	
6845.348003	0.050572	
6845.349533	0.050853	
6845.351084	0.051228	
6845.352619	0.061887	
6845.354135	0.049581	
6845.355721	0.042378	
6845.357233	0.037520	
6845.358828	0.042535	
6845.360320	0.042104	
6845.361934	0.021020	
6845.363431	0.028275	
6845.365028	0.036770	
6845.366521	0.036283	
6845.368093	0.038930	
6845.369616	0.036746	
6845.371167	0.033004	
6845.372690	0.030031	
6845.374214	0.031429	
6845.375780	0.023872	
6845.377296	0.007972	
6845.378860	0.016633	
6845.380376	0.017882	
6845.381978	0.022349	
6845.383472	0.028807	
6845.385046	0.029677	
6845.386569	0.035929	
6845.388166	0.032786	
6845.389655	0.031981	
6845.391223	0.021052	
6845.392750	0.016166	
6845.394312	0.018881	
6845.395846	0.020266	
6845.397357	0.032243	
6845.398938	0.023449	
6845.400461	0.014941	
6845.402027	0.020778	
6845.403534	0.022377	
6845.405150	0.021249	
6845.406636	0.020456	
6845.408209	0.013080	
6845.409732	0.014518	
6845.411325	0.013132	
6845.412819	0.018240	
6845.414392	0.018458	
6845.415920	0.018526	
6845.417464	0.019271	
6845.419033	0.019682	
6845.420516	0.018397	
6845.422116	0.019630	
6845.423625	0.011179	
6845.425214	0.008669	
6845.426713	0.012431	
6845.428283	0.008254	
6845.429800	0.011279	
6845.431364	0.012572	
6845.432895	0.014824	
6845.434408	0.016838	
6845.435978	0.020037	
6845.437484	0.016782	
6845.439057	0.008327	
6845.440557	0.004975	
6845.442158	0.004826	
6845.443643	0.009873	
6845.445225	0.005591	
6845.446744	0.006264	
6845.448324	0.007223	
6845.449804	0.011771	
6845.451363	0.009019	
6845.452878	0.017342	
6845.454445	0.009362	
6845.455969	0.008012	
6845.457482	-0.001450	
6845.459030	0.003710	
6845.460555	0.008073	
6845.462131	0.003412	
6845.463610	0.006590	
6845.465188	0.007682	
6845.466689	0.012105	
6845.468299	0.011521	
6845.469782	0.015412	
6845.471363	0.012717	
6845.472874	0.008782	
6845.474412	0.005869	
6845.475965	0.003642	
6845.477488	0.004399	
6845.479044	0.006566	
6845.480542	0.011432	
6845.482108	0.013708	
6845.483641	0.009092	
6845.485221	0.014901	
6845.486722	0.018736	
6845.488268	0.014486	
6845.489802	0.015473	
6845.491372	0.012270	
6845.492901	0.012512	
6845.494431	0.012230	
6845.495980	0.013785	
6845.497515	0.018446	
6845.499085	0.017024	
6845.500580	0.022172	
6845.502156	0.022273	
6845.503676	0.023735	
6845.505271	0.025177	
6845.506776	0.027429	
6845.508330	0.033935	
6845.509861	0.027389	
6845.511413	0.023050	
6845.512955	0.029101	
6845.514476	0.037133	
6845.516043	0.039635	
6845.517569	0.030007	
6845.519148	0.042483	
6845.520644	0.045568	
6845.522237	0.034112	
6845.523733	0.040710	
6845.525338	0.037322	
6845.526840	0.035747	
6845.528420	0.033242	
6845.529932	0.036066	
6845.531479	0.047309	
6845.533017	0.044368	
6845.534554	0.039042	
6845.536103	0.054584	
6845.537616	0.049967	
6845.539202	0.041580	
6845.540732	0.046257	
6845.542315	0.046890	
6845.543812	0.050846	
6845.545402	0.044219	
6845.546901	0.050946	
6845.548494	0.048783	
6845.549995	0.054761	
6845.551570	0.055760	
6845.553089	0.051772	
6845.554642	0.055776	
6845.556184	0.059506	
6845.557698	0.050366	
6845.559277	0.049911	
6845.560798	0.052868	
6845.562355	0.046205	
6845.563876	0.054076	
6845.565474	0.055728	
6845.566967	0.053565	
6845.568555	0.055083	
6845.570081	0.054870	
6845.571677	0.049693	
6845.573181	0.057512	
6845.574700	0.047264	
6845.576264	0.058193	
6845.577781	0.049274	
6845.579375	0.047176	
6845.580866	0.049673	
6845.582489	0.056058	
6845.583986	0.055820	
6845.585583	0.051776	
6845.587075	0.058604	
6845.588644	0.054221	
6845.590175	0.052811	
6845.591735	0.045512	
6845.593261	0.040779	
6845.594814	0.046692	
6845.596355	0.046571	
6845.597871	0.044372	
6845.599455	0.059148	
6845.600966	0.055039	
6845.602544	0.055148	
6845.604036	0.055889	
6845.605614	0.043349	
6845.607138	0.049661	
6845.608738	0.048002	
6845.610225	0.039764	
6845.611780	0.035268	
6845.613304	0.045097	
6845.614867	0.050302	
6845.616398	0.046543	
6845.617911	0.044038	
6845.619475	0.052968	
6845.620989	0.052787	
6845.622571	0.050853	
6845.624058	0.050858	
6845.625657	0.039498	
6845.627159	0.041665	
6845.628759	0.040597	
6845.630255	0.045669	
6845.631819	0.047945	
6845.633335	0.050277	
6845.634895	0.054757	
6845.636415	0.055192	
6845.637944	0.042934	
6845.639521	0.052694	
6845.641035	0.048074	
6845.642639	0.037979	
6845.644122	0.054298	
6845.645731	0.040412	
6845.647225	0.045085	
6845.648837	0.045750	
6845.650323	0.056759	
6845.651913	0.043607	
6845.653414	0.052267	
6845.654987	0.050801	
6845.656517	0.049399	
6845.658087	0.040182	
6845.659606	0.041500	
6845.661126	0.036372	
6845.662682	0.038478	
6845.664210	0.044598	
6845.665801	0.047953	
6845.667283	0.038474	
6845.668872	0.042632	
6845.670394	0.047063	
6845.671995	0.038575	
6845.673480	0.031606	
6845.675038	0.032931	
6845.676559	0.035900	
6845.678116	0.024363	
6845.679859	0.030273	
6845.681334	0.024581	
6845.683114	0.028371	
6845.684594	0.023336	
6845.686370	0.027501	
6845.687840	0.019497	
6845.689615	0.011618	
6845.691100	0.010816	
6845.692851	0.007726	
6845.694364	0.003569	
6845.696127	-0.010856	
6845.697633	-0.011054	
6845.699343	-0.008919	
6845.700868	-0.018144	
6845.702583	-0.025656	
6845.704126	-0.024492	
6845.705823	-0.037927	
6845.707386	-0.045492	
6845.709057	-0.056155	
6845.710632	-0.054092	
6845.712302	-0.063156	
6845.713882	-0.068208	
6845.715522	-0.069891	
6845.717111	-0.078222	
6845.718740	-0.087640	
6845.720376	-0.091999	
6845.721986	-0.108575	
6845.723673	-0.119150	
6845.725268	-0.126670	
6845.726925	-0.138200	
6845.728539	-0.145962	
6845.730207	-0.153036	
6845.731782	-0.160653	
6845.733480	-0.168001	
6845.735033	-0.179083	
6845.736724	-0.187675	
6845.738273	-0.205227	
6845.739964	-0.219032	
6845.741493	-0.236317	
6845.743219	-0.249220	
6845.744733	-0.260797	
6845.746498	-0.273628	
6845.747978	-0.282828	
6845.749744	-0.295232	
6845.751223	-0.312344	
6845.752994	-0.325972	
6845.754472	-0.344530	
6845.756239	-0.364615	
6845.757741	-0.380338	
6845.759507	-0.399629	
6845.761008	-0.413330	
6845.762749	-0.430063	
6845.764259	-0.443570	
6845.765982	-0.458149	
6845.767513	-0.473146	
6845.769215	-0.498251	
6845.770762	-0.515428	
6845.772437	-0.543050	
6845.774006	-0.568388	
6845.775678	-0.593883	
6845.777252	-0.609014	
6845.778907	-0.640761	
6845.780479	-0.658687	
6845.782127	-0.686103	
6845.783738	-0.703893	
6845.785338	-0.737755	
6845.787015	-0.772596	
6845.788596	-0.798675	
6845.790269	-0.837306	
6845.791865	-0.868901	
6845.793522	-0.904052	
6845.795098	-0.931432	
6845.796789	-0.970600	
6845.798347	-1.002826	
6845.800068	-1.041949	
6845.801612	-1.088227	
6845.803325	-1.132872	
6845.804869	-1.172600	
6845.806568	-1.224932	
6845.808080	-1.259426	
6845.809841	-1.310582	
6845.811315	-1.361899	
6845.813089	-1.416140	
6845.814570	-1.465765	
6845.816349	-1.522214	
6845.817829	-1.578658	
6845.819602	-1.618023	
6845.821086	-1.626112	
6845.822838	-1.626156	
6845.824350	-1.626080	
6845.826116	-1.626064	
6845.827629	-1.626168	
6845.829352	-1.626072	
6845.830875	-1.626213	
6845.832592	-1.625935	
6845.834128	-1.626185	
6845.835813	-1.626015	
6845.837365	-1.626205	
6845.839059	-1.626068	
6845.840628	-1.626201	
6845.842306	-1.626035	
6845.843879	-1.626140	
6845.845537	-1.625975	
6845.847130	-1.626104	
6845.848774	-1.626084	
6845.850391	-1.626152	
6845.852007	-1.626108	
6845.853646	-1.626229	
6845.855267	-1.626044	
6845.856899	-1.626209	
6845.858496	-1.626084	
6845.860170	-1.626301	
6845.861747	-1.626064	
6845.863439	-1.626225	
6845.864990	-1.626177	
6845.866695	-1.626156	
6845.868258	-1.626092	
6845.869940	-1.626257	
6845.871463	-1.626189	
6845.873187	-1.626156	
6845.874680	-1.626128	
6845.876460	-1.626253	
6845.877945	-1.626225	
6845.879713	-1.626168	
6845.881192	-1.626217	
6845.882960	-1.626233	
6845.884447	-1.626221	
6845.886185	-1.626233	
6845.887695	-1.626185	
6845.889426	-1.626245	
6845.890938	-1.626301	
6845.892664	-1.626213	
6845.894184	-1.626346	
6845.895892	-1.626237	
6845.897425	-1.626265	
6845.899108	-1.626185	
6845.900663	-1.626277	
6845.902352	-1.626136	
6845.903936	-1.626265	
6845.905590	-1.626197	
6845.907176	-1.626261	
6845.908827	-1.626068	
6845.910425	-1.626350	
6845.912083	-1.626168	
6845.913709	-1.626321	
6845.915312	-1.626193	
6845.916976	-1.626418	
6845.918562	-1.626277	
6845.920240	-1.626414	
6845.921821	-1.626177	
6845.923489	-1.626430	
6845.925055	-1.626313	
6845.926761	-1.626338	
6845.928305	-1.626342	
6845.930025	-1.626318	
6845.931565	-1.626362	
6845.933266	-1.626418	
6845.934801	-1.626289	
6845.936541	-1.626366	
6845.938046	-1.626434	
6845.939821	-1.626273	
6845.941297	-1.626378	
6845.943084	-1.626289	
6845.944562	-1.626362	
6845.946350	-1.626334	
6845.947836	-1.626310	
6845.949605	-1.626358	
6845.951085	-1.626354	
6845.952852	-1.626217	
6845.954353	-1.626330	
6845.956116	-1.626305	
6845.957630	-1.626318	
6845.959356	-1.626305	
6845.960873	-1.626354	
6845.962518	-1.626225	
6845.964088	-1.626390	
6845.965690	-1.626197	
6845.967280	-1.626358	
6845.968846	-1.626225	
6845.970456	-1.626241	
6845.972013	-1.626168	
6845.973664	-1.626293	
6845.975265	-1.626201	
6845.976889	-1.626140	
6845.978373	-1.626249	
6845.980093	-1.626221	
6845.981562	-1.626168	
6845.983278	-1.626245	
6845.984764	-1.626193	
6845.986465	-1.626229	
6845.987948	-1.626257	
6845.989644	-1.626132	
6845.991123	-1.626189	
6845.992797	-1.626249	
6845.994302	-1.626132	
6845.995961	-1.626136	
6845.997503	-1.626285	
6845.999131	-1.626181	
6846.000696	-1.626213	
6846.002292	-1.626068	
6846.003886	-1.626173	
6846.005455	-1.626052	
6846.007077	-1.626233	
6846.008599	-1.626124	
6846.010272	-1.626189	
6846.011752	-1.626088	
6846.013481	-1.626161	
6846.014957	-1.626120	
6846.016688	-1.626201	
6846.018163	-1.626096	
6846.019859	-1.626185	
6846.021340	-1.626140	
6846.023048	-1.626019	
6846.024536	-1.626116	
6846.026234	-1.626019	
6846.027741	-1.600286	
6846.029402	-1.351272	
6846.030920	-1.153957	
6846.032582	-0.936492	
6846.034121	-0.725291	
6846.035731	-0.514956	
6846.037291	-0.318040	
6846.038871	-0.111266	
6846.040474	0.108930	
6846.042036	0.320066	
6846.043676	0.527964	
6846.045179	0.721851	
6846.046877	0.934703	
6846.048355	1.140111	
6846.050088	1.342591	
6846.051558	1.535596	
6846.053276	1.626189	
6846.054758	1.628150	
6846.056453	1.628166	
6846.057950	1.628013	
6846.059656	1.628175	
6846.061139	1.628094	
6846.062816	1.628086	
6846.064318	1.628025	
6846.065976	1.628074	
6846.067497	1.628062	
6846.069123	1.628098	
6846.070689	1.628122	
6846.072285	1.628199	
6846.073892	1.627973	
6846.075455	1.628126	
6846.077081	1.628042	
6846.078628	1.628207	
6846.080319	1.628098	
6846.081794	1.628106	
6846.083491	1.628005	
6846.084968	1.628219	
6846.086694	1.628146	
6846.088182	1.628178	
6846.089910	1.628098	
6846.091392	1.628078	
6846.093104	1.628078	
6846.094591	1.628199	
6846.096293	1.628154	
6846.097773	1.627989	
6846.099453	1.628146	
6846.100958	1.628078	
6846.102627	1.628122	
6846.104170	1.628158	
6846.105779	1.628251	
6846.107350	1.628142	
6846.108928	1.628235	
6846.110518	1.628054	
6846.112089	1.628344	
6846.113706	1.628086	
6846.115224	1.628223	
6846.116896	1.628134	
6846.118381	1.628231	
6846.120082	1.628187	
6846.121567	1.628183	
6846.123297	1.628122	
6846.124780	1.628247	
6846.126493	1.628279	
6846.127975	1.628199	
6846.129688	1.628223	
6846.131172	1.628211	
6846.132871	1.628223	
6846.134366	1.628154	
6846.136055	1.628316	
6846.137584	1.628134	
6846.139225	1.628295	
6846.140771	1.628142	
6846.142390	1.628227	
6846.143963	1.628050	
6846.145563	1.628195	
6846.147162	1.628114	
6846.148722	1.628255	
6846.150349	1.628098	
6846.151854	1.628219	
6846.153550	1.628154	
6846.155024	1.628255	
6846.156757	1.628162	
6846.158229	1.628175	
6846.159876	1.628142	
6846.161348	1.628126	
6846.162993	1.628130	
6846.164478	1.628094	
6846.166081	1.628231	
6846.167606	1.628142	
6846.169156	1.628183	
6846.170749	1.628038	
6846.172228	1.628195	
6846.173888	1.628098	
6846.175372	1.628199	
6846.177012	1.628094	
6846.178536	1.628134	
6846.180174	1.628166	
6846.181654	1.628179	
6846.183285	1.628211	
6846.184767	1.628146	
6846.186418	1.628114	
6846.187920	1.628122	
6846.189553	1.628017	
6846.191066	1.628022	
6846.192650	1.628166	
6846.194174	1.628142	
6846.195723	1.628094	
6846.197327	1.628154	
6846.198823	1.628138	
6846.200455	1.628138	
6846.201970	1.628086	
6846.203623	1.628026	
6846.205112	1.628050	
6846.206766	1.628054	
6846.208244	1.627989	
6846.209894	1.628082	
6846.211373	1.628062	
6846.213012	1.628142	
6846.214487	1.628074	
6846.216105	1.627965	
6846.217624	1.628142	
6846.219175	1.628203	
6846.220742	1.628078	
6846.222244	1.628134	
6846.223907	1.628138	
6846.225386	1.628154	
6846.227014	1.628126	
6846.228533	1.628054	
6846.230170	1.628283	
6846.231653	1.628106	
6846.233296	1.628122	
6846.234780	1.628001	
6846.236406	1.628070	
6846.237886	1.628110	
6846.239516	1.627961	
6846.241025	1.628074	
6846.242592	1.628102	
6846.244148	1.628090	
6846.245676	1.628058	
6846.247291	1.628102	
6846.248779	1.628082	
6846.250428	1.628110	
6846.251943	1.627953	
6846.253583	1.628086	
6846.255061	1.628009	
6846.256695	1.628074	
6846.258168	1.627937	
6846.259808	1.628110	
6846.261289	1.627997	
6846.262924	1.628070	
6846.264432	1.628026	
6846.266014	1.628118	
6846.267558	1.628114	
6846.269107	1.628154	
6846.270697	1.628042	
6846.272184	1.625883	
6846.273837	1.580479	
6846.275325	1.510947	
6846.276976	1.452890	
6846.278472	1.410335	
6846.280116	1.378898	
6846.281605	1.336552	
6846.283236	1.302972	
6846.284735	1.260453	
6846.286369	1.230857	
6846.287850	1.186288	
6846.289460	1.148301	
6846.290962	1.097500	
6846.292546	1.076528	
6846.294098	1.039439	
6846.295610	0.998383	
6846.297263	0.969939	
6846.298759	0.947336	
6846.300388	0.915694	
6846.301913	0.885074	
6846.303543	0.841480	
6846.305021	0.817592	
6846.306675	0.782255	
6846.308146	0.760913	
6846.309795	0.739185	
6846.311268	0.711522	
6846.312917	0.688605	
6846.314401	0.662771	
6846.315995	0.636825	
6846.317527	0.629647	
6846.319081	0.616530	
6846.320682	0.583281	
6846.322166	0.562108	
6846.323814	0.536451	
6846.325305	0.512632	
6846.326967	0.500583	
6846.328452	0.477348	
6846.330096	0.459502	
6846.331564	0.451518	
6846.333138	0.435131	
6846.334641	0.415590	
6846.336195	0.422236	
6846.337731	0.405265	
6846.339217	0.389937	
6846.340788	0.372845	
6846.342307	0.355745	
6846.343928	0.343821	
6846.345413	0.326201	
6846.347028	0.320699	
6846.348540	0.318926	
6846.350120	0.310318	
6846.351591	0.299340	
6846.353171	0.292375	
6846.354663	0.269144	
6846.356204	0.264028	
6846.357749	0.249941	
6846.359245	0.241453	
6846.360808	0.236442	
6846.362325	0.224587	
6846.363918	0.225699	
6846.365422	0.225542	
6846.366984	0.213034	
6846.368497	0.217030	
6846.370087	0.207704	
6846.371570	0.211765	
6846.373147	0.182858	
6846.374639	0.186693	
6846.376195	0.179917	
6846.377736	0.172626	
6846.379228	0.171103	
6846.380809	0.167558	
6846.382323	0.170192	
6846.383929	0.161729	
6846.385434	0.164924	
6846.387001	0.159646	
6846.388525	0.150168	
6846.390086	0.150462	
6846.391576	0.146671	
6846.393113	0.136600	
6846.394655	0.135440	
6846.396209	0.140464	
6846.397764	0.137491	
6846.399257	0.134755	
6846.400821	0.134828	
6846.402335	0.135835	
6846.403927	0.135521	
6846.405424	0.130179	
6846.406998	0.113357	
6846.408517	0.116584	
6846.410095	0.119460	
6846.411594	0.114908	
6846.413142	0.112592	
6846.414660	0.110855	
6846.416210	0.111685	
6846.417750	0.113562	
6846.419238	0.110255	
6846.420824	0.108189	
6846.422343	0.097868	
6846.423931	0.097405	
6846.425426	0.091749	
6846.426998	0.085932	
6846.428521	0.089247	
6846.430098	0.089098	
6846.431607	0.087983	
6846.433157	0.091036	
6846.434669	0.089691	
6846.436227	0.090641	
6846.437766	0.078452	
6846.439256	0.076977	
6846.440831	0.073183	
6846.442359	0.067051	
6846.443953	0.066951	
6846.445436	0.071769	
6846.447012	0.066516	
6846.448529	0.072284	
6846.450108	0.070931	
6846.451616	0.071084	
6846.453148	0.072175	
6846.454677	0.047591	
6846.456225	0.057968	
6846.457768	0.056977	
6846.459249	0.051623	
6846.460820	0.037077	
6846.462336	0.048062	
6846.463931	0.051993	
6846.465420	0.055309	
6846.466985	0.050310	
6846.468503	0.054979	
6846.470106	0.052094	
6846.471580	0.045822	
6846.473147	0.032891	
6846.474642	0.039506	
6846.476189	0.034317	
6846.477726	0.035244	
6846.479223	0.030607	
6846.480793	0.038644	
6846.482319	0.038039	
6846.483931	0.033129	
6846.485409	0.042894	
6846.487003	0.035147	
6846.488489	0.029564	
6846.490072	0.030390	
6846.491560	0.031268	
6846.493117	0.028976	
6846.494637	0.036267	
6846.496181	0.027252	
6846.497741	0.031872	
6846.499234	0.034567	
6846.500799	0.034740	
6846.502323	0.036267	
6846.503915	0.038273	
6846.505415	0.027650	
6846.506965	0.026180	
6846.508495	0.031892	
6846.510084	0.029032	
6846.511569	0.019557	
6846.513135	0.031723	
6846.514621	0.039405	
6846.516174	0.035276	
6846.517729	0.036364	
6846.519224	0.041806	
6846.520790	0.042954	
6846.522310	0.033475	
6846.523908	0.029415	
6846.525412	0.031087	
6846.526986	0.029503	
6846.528518	0.040412	
6846.530095	0.036521	
6846.531598	0.041866	
6846.533144	0.052130	
6846.534685	0.041185	
6846.536234	0.043599	
6846.537797	0.035175	
6846.539289	0.031977	
6846.540869	0.030249	
6846.542395	0.038418	
6846.543981	0.040130	
6846.545483	0.037471	
6846.547044	0.048271	
6846.548579	0.046193	
6846.550090	0.043627	
6846.551678	0.046511	
6846.553162	0.053033	
6846.554769	0.046213	
6846.556261	0.048187	
6846.557863	0.035707	
6846.559353	0.031969	
6846.560938	0.038301	
6846.562463	0.039482	
6846.564065	0.052010	
6846.565561	0.049141	
6846.567112	0.049806	
6846.568664	0.055401	
6846.570180	0.055704	
6846.571748	0.053617	
6846.573265	0.060719	
6846.574867	0.036879	
6846.576357	0.049504	
6846.577942	0.045057	
6846.579463	0.040223	
6846.581052	0.049810	
6846.582547	0.055269	
6846.584117	0.051849	
6846.585644	0.046213	
6846.587221	0.049403	
6846.588748	0.056525	
6846.590266	0.046011	
6846.591851	0.037286	
6846.593377	0.040887	
6846.594940	0.035123	
6846.596444	0.040142	
6846.598060	0.057311	
6846.599550	0.044247	
6846.601136	0.044215	
6846.602657	0.042845	
6846.604267	0.051434	
6846.605756	0.030700	
6846.607326	0.031417	
6846.608841	0.028742	
6846.610417	0.029205	
6846.611947	0.018623	
6846.613464	0.030527	
6846.615038	0.033036	
6846.616557	0.032404	
