time (s)	magX	magY	magZ
7178.508566	449.833435	-190.943314	-637.596741
7178.511873	451.177673	-191.118652	-658.403259
7178.515275	451.119232	-190.767975	-678.274719
7178.518611	451.060760	-190.008194	-697.795471
7178.521905	451.586823	-189.073059	-718.952698
7178.525250	449.950287	-188.196381	-738.648804
7178.528586	448.956757	-186.384567	-760.741089
7178.532341	447.437164	-184.397430	-782.190552
7178.535251	444.807129	-182.644073	-802.529541
7178.538584	441.767975	-180.481583	-823.686707
7178.541912	438.670380	-178.319122	-845.720703
7178.545220	433.936310	-175.689072	-866.468750
7178.549009	429.552887	-172.240799	-888.561096
7178.552309	425.111053	-168.500290	-909.484497
7178.555593	419.266510	-164.409119	-929.823547
7178.558934	412.779083	-160.201065	-950.279358
7178.562279	405.531860	-155.642319	-970.676819
7178.565592	397.758606	-150.791367	-990.665161
7178.568908	389.167145	-145.122162	-1009.250793
7178.572244	380.809448	-138.926941	-1029.005249
7178.575561	371.399780	-133.374634	-1047.123291
7178.578895	361.113403	-125.952072	-1064.072510
7178.582245	349.132111	-118.412621	-1081.722900
7178.585540	337.969025	-111.399178	-1097.795410
7178.588862	326.338409	-103.918175	-1112.523560
7178.592159	312.837524	-96.086494	-1127.485596
7178.595544	298.927521	-87.728806	-1141.454102
7178.598863	285.075989	-78.786667	-1155.071899
7178.602170	269.471069	-69.318527	-1166.585571
7178.605477	254.801285	-59.850380	-1178.216187
7178.608794	239.313263	-50.849796	-1188.093384
7178.612070	222.597900	-41.381649	-1196.568115
7178.615518	205.590302	-31.270603	-1204.224365
7178.618804	188.056702	-21.802456	-1211.120972
7178.622135	169.821747	-11.516072	-1216.790161
7178.625486	151.645233	-0.002337	-1221.056641
7178.628852	131.949158	10.342490	-1224.972534
7178.632159	112.720634	20.511982	-1226.258301
7178.635564	93.375221	30.681469	-1227.602539
7178.638869	74.380478	41.435417	-1226.024536
7178.642185	54.333725	52.014027	-1225.498535
7178.645475	33.760956	62.943310	-1222.167114
7178.648841	14.415546	72.703682	-1217.725220
7178.652140	-7.092344	83.282295	-1213.341919
7178.655486	-26.437756	93.218002	-1205.685547
7178.658869	-45.724724	103.504395	-1200.425415
7178.662165	-65.654587	113.966103	-1192.535400
7178.665478	-84.649330	123.901817	-1182.833374
7178.668812	-103.644073	133.311508	-1172.546997
7178.672590	-122.346573	142.779663	-1160.098145
7178.675977	-140.347748	152.247803	-1147.473999
7178.678866	-157.706024	161.540619	-1135.025146
7178.682157	-174.888962	170.599640	-1121.232056
7178.685532	-190.961426	179.307999	-1106.153076
7178.688864	-206.566345	187.724136	-1091.541748
7178.692190	-222.229675	195.964935	-1075.469238
7178.695957	-236.373459	203.679703	-1058.461670
7178.699257	-250.225006	211.043839	-1041.687866
7178.702546	-263.784363	218.583267	-1022.985413
7178.705837	-275.473419	225.830505	-1006.036316
7178.709239	-288.272949	231.616592	-987.976685
7178.712518	-299.611328	237.928696	-969.566345
7178.715887	-310.248383	243.597885	-951.857422
7178.719167	-319.950317	249.150192	-932.745789
7178.722480	-329.476929	254.585617	-913.166565
7178.725836	-338.243713	258.969025	-894.405701
7178.729201	-346.776733	263.235535	-875.469299
7178.732487	-355.368195	267.326721	-855.948547
7178.735865	-361.855652	271.476318	-836.194092
7178.739153	-368.401520	274.164825	-817.549988
7178.742520	-374.596741	276.677979	-797.561646
7178.745812	-380.032135	278.898895	-779.268311
7178.749143	-385.350677	281.236725	-760.682678
7178.752466	-390.026306	283.340759	-741.746338
7178.755822	-393.240784	284.275879	-722.693176
7178.759148	-397.156647	285.444763	-705.393372
7178.762462	-400.955597	285.269440	-686.515503
7178.765768	-403.118042	285.386353	-668.572815
7178.769066	-405.923431	285.853912	-651.857422
7178.772405	-407.735260	284.743439	-634.265381
7178.775801	-409.137939	284.392761	-617.082458
7178.779123	-410.657501	283.457642	-599.548828
7178.782419	-411.767975	282.931641	-582.950317
7178.785765	-412.060181	282.639404	-566.644104
7178.789067	-411.943298	280.418488	-551.272949
7178.792422	-411.709503	278.840454	-535.434265
7178.795724	-411.943298	277.905334	-520.472290
7178.799490	-411.475769	275.918182	-505.919342
7178.802418	-410.482178	273.697266	-490.957367
7178.806133	-408.904144	271.943909	-475.761566
7178.809504	-406.858551	269.372314	-461.617767
7178.812791	-405.689636	267.502075	-448.935120
7178.816160	-403.527191	264.930450	-435.784912
7178.819466	-401.364716	263.294006	-422.225616
7178.822791	-399.260681	260.254822	-410.127411
7178.826170	-396.455292	258.150818	-397.561676
7178.829485	-393.883728	255.637650	-386.515472
7178.832763	-390.961426	252.949142	-375.235535
7178.836146	-387.805389	251.137344	-364.014038
7178.839443	-384.883118	248.507309	-351.798950
7178.842807	-381.434845	245.994156	-342.213898
7178.846083	-378.980133	243.422562	-331.810638
7178.849388	-375.064301	241.493866	-322.459381
7178.852709	-371.966675	239.214493	-312.465210
7178.856018	-368.284607	236.642883	-303.172424
7178.859382	-364.544128	234.305069	-293.704254
7178.862692	-361.797211	231.616592	-285.463470
7178.866008	-358.115143	229.804779	-276.813538
7178.869333	-354.783752	228.343658	-268.748077
7178.872599	-350.341888	224.778488	-259.922852
7178.875916	-347.127411	222.031540	-252.850952
7178.879200	-343.445374	220.219757	-245.019287
7178.882557	-340.055511	217.414383	-238.824081
7178.886295	-337.191711	214.550537	-231.752182
7178.890051	-333.217407	212.329620	-225.206299
7178.893385	-330.412048	209.874924	-218.718887
7178.896750	-326.613098	207.712433	-212.056107
7178.900042	-323.164795	205.257751	-205.685562
7178.903383	-319.716522	202.335480	-199.899460
7178.906718	-316.209839	199.880768	-194.171814
7178.910042	-313.170654	197.542953	-188.970200
7178.913376	-310.540619	194.620682	-182.950317
7178.916711	-306.741669	191.990631	-178.508469
7178.920044	-303.994751	190.354172	-173.014603
7178.923381	-300.195801	187.373459	-167.637634
7178.926709	-297.215057	184.743423	-162.962006
7178.930037	-294.585052	182.990067	-157.818817
7178.933372	-291.253662	180.067795	-154.195190
7178.936714	-288.272949	178.255981	-149.811798
7178.940062	-284.707764	176.151962	-146.363525
7178.943379	-282.720612	174.047928	-141.804779
7178.946709	-280.032135	172.119217	-138.122726
7178.950041	-276.466980	169.839859	-135.083572
7178.953412	-274.070740	167.618927	-131.050842
7178.956707	-271.616028	166.099350	-128.070129
7178.960040	-268.635315	164.287537	-124.095848
7178.963377	-266.589722	163.235535	-120.413795
7178.966709	-264.193451	160.897720	-118.075981
7178.970043	-261.446503	159.436584	-114.861488
7178.973374	-259.108704	157.916992	-112.114555
7178.976701	-255.835754	156.338974	-109.718292
7178.980040	-254.199310	155.286972	-106.737579
7178.983411	-251.919922	153.358261	-103.990646
7178.986703	-249.582123	152.364700	-101.535942
7178.990034	-247.653412	150.962006	-99.724144
7178.993370	-245.549377	149.208633	-97.269440
7178.996705	-243.503799	148.741074	-95.048508
7179.000036	-241.165985	147.163055	-92.476913
7179.003370	-239.471069	145.760376	-90.606667
7179.006699	-237.016357	144.416122	-89.028641
7179.010031	-235.672134	143.481003	-87.392174
7179.013368	-233.743423	142.136749	-84.469902
7179.016702	-231.814728	141.026291	-83.300995
7179.020046	-230.412048	140.208069	-81.372299
7179.023368	-228.600220	138.688477	-79.385162
7179.026710	-227.489777	137.578018	-78.508476
7179.030034	-226.379303	137.052017	-76.813560
7179.033371	-224.158386	135.590881	-75.118645
7179.036698	-222.521912	134.538864	-73.774399
7179.040031	-221.353012	133.486847	-72.313271
7179.043362	-219.891876	132.960831	-70.150787
7179.046698	-218.722977	131.558151	-69.507896
7179.050031	-217.144958	131.149033	-68.105202
7179.053360	-216.268265	130.213898	-67.053185
7179.056700	-214.924011	129.103439	-66.118057
7179.060035	-213.872009	128.109879	-64.014023
7179.063360	-212.995331	127.350090	-63.663353
7179.066701	-211.417297	127.291634	-62.319115
7179.070055	-211.066635	126.181175	-61.325539
7179.073358	-209.956161	124.895393	-60.624199
7179.076694	-208.319702	124.486259	-58.812386
7179.080027	-208.144363	123.492699	-58.637054
7179.083373	-207.384567	123.200478	-58.111046
7179.086692	-206.741684	122.440681	-57.351257
7179.090028	-205.864990	121.797783	-56.825249
7179.093364	-204.637634	121.213326	-56.065460
7179.096691	-204.403870	120.979546	-56.240791
7179.100030	-203.702515	120.687325	-54.838104
7179.103361	-203.410278	120.044411	-54.604324
7179.106695	-202.533615	119.693748	-54.370544
7179.110027	-201.949158	119.109291	-53.844536
7179.113401	-202.066055	118.583290	-53.026299
7179.116694	-201.364700	118.933960	-53.084747
7179.120023	-201.481598	118.174164	-52.208061
7179.123354	-200.546463	117.823502	-52.558739
7179.126692	-200.488037	117.414375	-52.324959
7179.130024	-200.254242	117.823502	-51.214493
7179.133353	-200.371140	118.174164	-50.980713
7179.136691	-199.962006	117.823502	-50.454704
7179.140028	-199.436005	117.823502	-51.214493
7179.143361	-199.728241	117.414375	-51.156052
7179.146754	-199.552902	117.472824	-50.805374
7179.150025	-199.143784	117.414375	-50.863823
7179.153360	-199.494446	117.180595	-51.039162
7179.156726	-199.143784	117.239044	-50.337814
7179.160022	-199.202209	117.063705	-50.922264
7179.163358	-199.494446	117.472824	-50.688484
7179.166685	-198.968445	117.589722	-50.688484
7179.170023	-199.260681	117.998833	-50.630043
7179.173352	-199.377548	117.297493	-50.688484
7179.176688	-199.962006	117.297493	-51.272942
7179.180020	-199.962006	117.765053	-51.214493
7179.183348	-200.429565	117.765053	-51.272942
7179.186685	-201.072464	117.940384	-51.915840
7179.190016	-201.540024	118.057281	-51.448273
7179.193348	-201.423157	118.291061	-52.149620
7179.196689	-202.884277	118.291061	-52.675629
7179.200036	-203.001175	118.700180	-53.143188
7179.203353	-203.293411	118.933960	-53.493866
7179.206686	-203.351837	118.291061	-54.019867
7179.210014	-204.871429	118.817078	-54.428986
7179.213351	-205.572754	119.401527	-55.364113
7179.216737	-205.806549	119.459969	-55.831680
7179.220010	-207.033905	119.752205	-56.065460
7179.223352	-207.852142	119.810631	-56.240791
7179.226679	-208.904160	120.278206	-57.877266
7179.230014	-210.014618	121.388664	-58.870834
7179.233345	-210.482178	121.680885	-58.929276
7179.236682	-211.534195	122.148445	-59.396843
7179.240012	-212.293976	122.499123	-60.857979
7179.243379	-213.638214	123.200478	-61.559319
7179.246676	-214.748688	123.492699	-63.488022
7179.250020	-216.385162	124.018700	-64.014023
7179.253340	-218.138519	124.778496	-64.656929
7179.256677	-218.664520	125.538292	-66.293396
7179.260008	-220.242554	125.888954	-67.637634
7179.263344	-221.469894	127.408531	-68.923439
7179.266680	-222.697250	128.226776	-70.209236
7179.270010	-223.983063	128.460556	-71.845711
7179.273342	-225.444183	129.278778	-73.131508
7179.276676	-227.314438	130.915253	-75.118645
7179.280054	-229.009354	131.558151	-75.936882
7179.283341	-230.002914	132.084152	-78.099365
7179.286712	-231.347168	133.545288	-79.443604
7179.290005	-233.275848	134.889526	-80.904739
7179.293349	-235.029236	135.123306	-83.417885
7179.296674	-236.607254	135.649323	-84.762131
7179.300002	-238.711273	137.402695	-86.281708
7179.303336	-240.289291	138.513153	-88.327301
7179.306675	-242.744003	139.039154	-90.314438
7179.310007	-244.380493	140.675629	-91.483345
7179.313341	-246.776733	141.669189	-93.879601
7179.316674	-248.588562	142.312103	-96.217422
7179.320005	-250.692566	143.305664	-97.970779
7179.323334	-252.679718	144.123901	-99.724144
7179.326667	-254.842194	144.942123	-102.237289
7179.330453	-257.589142	145.935699	-105.042664
7179.333789	-260.219177	146.987717	-107.672707
7179.337130	-262.615417	148.857971	-110.302750
7179.340434	-264.953247	149.442429	-113.283463
7179.343758	-267.232635	151.078888	-115.562836
7179.347091	-270.447113	152.072464	-118.718880
7179.350434	-273.018707	153.650482	-122.634712
7179.353755	-275.531860	155.111618	-125.732315
7179.357089	-277.869659	156.222092	-129.239029
7179.360424	-281.084167	157.391006	-133.271759
7179.363769	-284.298645	159.027466	-136.836929
7179.367113	-287.162476	160.137924	-140.752762
7179.370450	-290.435425	161.832840	-144.142593
7179.373817	-293.357697	163.235535	-148.759781
7179.377092	-296.104614	164.813553	-153.026291
7179.380445	-299.611328	166.566925	-157.585037
7179.383761	-302.475159	167.969604	-161.208649
7179.387086	-305.864990	169.372299	-166.468719
7179.390421	-309.254822	171.768539	-170.969025
7179.393754	-312.293976	173.112793	-176.053757
7179.397089	-316.092926	175.041504	-180.495621
7179.400444	-319.248962	176.911743	-186.690811
7179.403783	-322.755707	179.307999	-192.418457
7179.407112	-326.145538	180.886032	-197.620102
7179.410444	-329.360016	182.522507	-203.581512
7179.413764	-332.866760	185.327881	-209.133835
7179.417122	-336.431915	186.789017	-216.322601
7179.420418	-340.055511	189.009933	-222.167160
7179.423753	-343.328461	190.587952	-229.239029
7179.427085	-347.068970	192.575104	-235.375809
7179.430417	-351.803040	194.737579	-242.038574
7179.433798	-355.192871	196.432495	-248.467560
7179.437114	-358.465790	198.068954	-256.007019
7179.440448	-362.498535	200.523666	-263.546478
7179.443753	-366.239044	201.751022	-271.319702
7179.447092	-369.921112	203.971939	-279.618927
7179.450414	-374.129150	205.491516	-288.268860
7179.453757	-377.343658	207.361771	-295.808289
7179.457086	-380.967285	208.472229	-304.750427
7179.460456	-384.883118	209.933380	-314.277039
7179.463751	-388.915833	211.452942	-323.862061
7179.467080	-392.831665	213.732315	-332.453522
7179.470447	-396.104645	214.492111	-343.032135
7179.473774	-399.903534	215.777893	-352.208069
7179.477183	-403.527191	217.063690	-362.903564
7179.480418	-407.676788	218.466400	-373.774414
7179.483767	-410.891296	219.635300	-385.638794
7179.487079	-414.631805	220.862656	-396.860321
7179.490416	-417.846313	221.914673	-409.250732
7179.493735	-421.119232	223.200470	-421.173553
7179.497080	-424.509064	223.726456	-433.096466
7179.500415	-428.015778	224.953812	-445.720612
7179.503800	-430.178284	225.421387	-459.396820
7179.507095	-432.282257	226.824066	-472.021057
7179.510443	-435.379913	227.350098	-487.450592
7179.513742	-437.367035	227.700760	-501.009949
7179.517075	-439.646393	228.635880	-514.978394
7179.520410	-442.276428	228.518982	-530.115723
7179.523749	-443.153107	228.577454	-545.545349
7179.527085	-444.555817	228.285217	-560.273560
7179.530402	-446.192291	228.694321	-575.761597
7179.533767	-446.659851	228.109879	-591.892517
7179.537096	-447.244324	227.876083	-608.432495
7179.540435	-447.302734	227.350098	-623.745178
7179.543770	-447.945648	226.473404	-640.986572
7179.547101	-446.718262	225.888947	-657.701965
7179.550405	-446.542938	224.427826	-675.761597
7179.553746	-445.023346	222.908234	-692.360046
7179.557073	-443.211578	221.739334	-710.945679
7179.560407	-441.691986	219.284622	-726.316833
7179.563752	-438.652802	216.771484	-744.610168
7179.567076	-436.782562	214.725876	-761.851562
7179.570429	-433.743439	211.920502	-780.144958
7179.573759	-430.178284	208.939789	-798.964355
7179.577113	-426.028656	205.725311	-816.556396
7179.580485	-422.521942	201.751022	-834.966675
7179.584160	-416.852722	198.594971	-853.552368
7179.587523	-412.293976	193.919342	-871.202881
7179.590837	-405.981873	189.419037	-889.262390
7179.594183	-399.903534	183.983643	-907.906555
7179.597537	-393.649933	178.898880	-926.433655
7179.600913	-386.519592	173.521912	-944.084167
7179.604235	-378.921692	167.092926	-961.559326
7179.607550	-369.979523	161.131500	-978.800720
7179.610830	-361.095856	154.644058	-996.100525
7179.614156	-353.030396	148.331970	-1013.458862
7179.617517	-343.211578	140.850967	-1030.933960
7179.620872	-333.217407	133.895950	-1046.889404
7179.624177	-321.645233	126.239632	-1063.897095
7179.627572	-310.073059	118.057281	-1080.437134
7179.630908	-298.325562	110.342499	-1096.158936
7179.634151	-285.759796	101.926361	-1110.828735
7179.637481	-273.018707	93.218002	-1125.790771
7179.640824	-259.576263	84.509651	-1139.642334
7179.644177	-245.841614	75.742844	-1153.143188
7179.647508	-230.996506	66.625374	-1166.351807
7179.650932	-217.378723	58.033901	-1178.040894
7179.654242	-201.364700	48.507305	-1189.320801
7179.657513	-185.701340	39.565166	-1199.899414
7179.660826	-169.862656	30.272354	-1209.016968
7179.664175	-153.673294	20.745762	-1218.718872
7179.667475	-137.425476	11.569842	-1227.135010
7179.670840	-120.067215	2.218586	-1234.382202
7179.674235	-102.358269	-6.840444	-1240.986450
7179.677565	-84.883110	-17.243717	-1246.071289
7179.680937	-68.343071	-26.010521	-1250.571655
7179.684151	-50.809467	-35.011105	-1254.078247
7179.687480	-32.457630	-43.894798	-1256.006958
7179.690815	-15.333139	-53.012276	-1258.403320
7179.694200	2.025131	-61.428406	-1259.338379
7179.697516	20.493862	-70.487434	-1259.163086
7179.700885	37.150787	-78.962006	-1258.520142
7179.704227	54.216831	-87.261246	-1256.182373
7179.707535	71.399765	-95.326706	-1252.967773
7179.710806	88.173584	-103.684395	-1248.818115
7179.714148	104.304497	-111.282295	-1244.610229
7179.717486	120.201637	-119.639977	-1238.590332
7179.720835	136.332550	-127.413208	-1231.693726
7179.724163	151.703674	-134.952667	-1224.914062
7179.727587	166.490356	-141.849213	-1217.549927
7179.730930	181.101685	-149.271774	-1208.315552
7179.734153	195.420807	-155.700760	-1199.139648
7179.737495	209.447693	-162.421982	-1188.561035
7179.740810	222.188766	-168.208069	-1176.871948
7179.744157	235.105194	-174.753952	-1165.007568
7179.747510	246.794281	-180.130920	-1152.500244
7179.750898	259.593811	-185.449448	-1141.220337
7179.754237	270.815308	-190.884857	-1126.842773
7179.757530	282.445953	-196.144943	-1113.049683
7179.760807	293.667450	-200.879028	-1098.847412
7179.764134	303.486267	-205.729980	-1082.482666
7179.767505	313.597321	-209.938049	-1067.286987
7179.770832	322.831665	-213.503220	-1052.500244
7179.774257	332.416718	-217.477509	-1035.551147
7179.777555	340.599060	-220.341324	-1019.069580
7179.780910	348.080078	-223.848053	-1001.828247
7179.784143	355.444183	-226.244308	-984.703674
7179.787474	363.100525	-229.166580	-967.403931
7179.790807	369.880188	-231.036835	-951.565186
7179.794167	376.601410	-233.316177	-933.271790
7179.797509	382.153717	-235.303329	-916.790222
7179.800881	388.232025	-236.998245	-898.789062
7179.804236	393.433655	-238.517838	-880.846313
7179.807519	397.758606	-239.043839	-862.962097
7179.810816	402.025146	-240.329651	-845.779053
7179.814572	405.531860	-240.855652	-828.128662
7179.817528	408.337219	-241.264771	-811.413208
7179.820836	411.727081	-241.615433	-794.697876
7179.824215	413.714203	-241.849213	-776.988892
7179.827550	416.461121	-241.849213	-760.156677
7179.830864	418.156036	-241.323212	-744.201050
7179.834561	420.084747	-240.563416	-727.427246
7179.837919	421.604340	-241.089417	-712.699036
7179.840863	422.422546	-240.738754	-696.626526
7179.844655	423.123932	-240.271194	-681.138550
7179.847552	423.532990	-239.043839	-666.176514
7179.850923	424.117462	-238.167160	-650.571594
7179.854572	423.825256	-237.816483	-636.310913
7179.857912	423.532990	-236.822922	-621.582703
7179.861331	423.299255	-236.180023	-607.672729
7179.864649	422.013458	-235.069565	-593.178284
7179.867986	421.370544	-234.251312	-581.080078
7179.871307	420.143219	-233.433075	-567.637634
7179.874601	418.857361	-231.855057	-554.253723
7179.877916	416.987122	-230.978363	-540.986572
7179.881240	415.000000	-229.575684	-528.070129
7179.884687	413.714203	-228.289886	-516.556396
7179.887990	412.253082	-227.530106	-504.282867
7179.891320	410.324371	-226.244308	-492.652222
7179.894675	408.395691	-224.490952	-479.852722
7179.897983	405.940979	-222.971375	-468.748077
7179.901278	403.953827	-221.860916	-457.994171
7179.904704	401.674438	-220.633560	-447.649323
7179.908013	399.219757	-218.704865	-436.895355
7179.911330	397.466400	-217.243713	-426.316772
7179.914639	394.251923	-215.490372	-417.257721
7179.917977	392.089417	-213.561661	-407.263550
7179.921331	390.043854	-211.925201	-397.620087
7179.924658	387.706024	-209.704285	-387.801300
7179.928009	385.075989	-208.652252	-379.151367
