time (s)	magX	magY	magZ
7777.280150	307.411469	154.317947	1049.371094
7777.283482	300.456451	149.583862	1058.254761
7777.286813	293.793701	144.265350	1066.495605
7777.290140	285.377563	139.472809	1076.431274
7777.293472	278.247223	134.797195	1085.899414
7777.297732	261.648743	123.341904	1101.679687
7777.301012	253.291077	118.198715	1110.738647
7777.304334	244.290482	112.471069	1118.219727
7777.307698	234.822327	106.626534	1126.635864
7777.311037	224.828186	100.957336	1134.642822
7777.313898	215.243134	94.762131	1142.591431
7777.317234	204.664520	89.092926	1149.838623
7777.320595	194.436600	82.722382	1156.501465
7777.323921	183.799545	76.234955	1163.164185
7777.326809	172.987152	70.039749	1169.359497
7777.330182	161.940979	64.253654	1175.203979
7777.333469	151.011688	57.240211	1181.983643
7777.336808	139.439514	50.986557	1185.256470
7777.340143	128.334900	45.083576	1190.867310
7777.343474	116.762711	38.303917	1194.958496
7777.346806	105.365875	32.342491	1200.160034
7777.350137	94.144363	25.621273	1204.192871
7777.353476	82.981300	19.718292	1206.121460
7777.356802	71.292229	13.815312	1212.082886
7777.360138	60.304504	6.451198	1214.537720
7777.363470	48.907658	-0.036237	1215.005249
7777.366808	37.335480	-6.172998	1218.219727
7777.370133	25.938635	-12.075979	1219.622314
7777.373485	15.067799	-18.855639	1223.129150
7777.376806	4.722973	-24.700176	1223.246094
7777.380136	-5.914082	-31.246056	1223.362915
7777.383468	-16.317352	-38.025719	1222.953735
7777.386806	-27.246635	-44.104031	1223.538208
7777.390135	-38.059025	-50.766800	1223.596680
7777.393471	-48.403858	-57.312683	1222.895386
7777.396806	-58.748684	-63.741669	1221.726440
7777.400138	-69.444183	-70.287552	1220.966675
7777.403466	-78.853882	-77.359436	1219.680786
7777.408097	-100.478668	-91.094101	1216.992310
7777.411001	-111.057266	-97.464645	1212.842651
7777.414340	-120.466965	-104.302750	1211.381592
7777.417710	-131.396255	-112.017532	1206.939697
7777.421089	-141.741089	-118.154297	1202.965454
7777.423915	-152.202805	-125.518417	1198.640503
7777.427287	-162.898300	-132.356506	1195.718262
7777.430549	-173.243134	-138.785507	1189.990601
7777.433889	-183.295715	-145.331375	1185.198120
7777.437229	-193.815887	-152.052597	1179.411987
7777.440128	-203.576263	-158.656937	1173.508911
7777.443463	-214.213318	-164.969025	1168.190552
7777.446829	-224.207489	-171.105789	1160.767944
7777.450127	-233.850983	-177.593216	1154.105103
7777.453465	-243.845123	-182.853302	1146.741089
7777.456797	-252.495026	-189.048523	1139.318481
7777.460133	-263.248993	-194.425476	1131.019287
7777.463461	-272.191101	-199.977783	1122.486206
7777.466793	-282.126831	-205.062546	1114.070068
7777.470128	-290.601379	-210.088837	1105.478638
7777.473457	-298.842194	-214.355331	1096.887207
7777.476788	-307.725891	-218.563431	1088.412598
7777.480157	-314.739349	-223.531250	1079.236694
7777.483506	-323.155457	-227.096420	1068.950317
7777.486799	-330.052002	-231.362946	1060.066528
7777.490145	-337.474579	-234.460556	1050.130859
7777.493462	-344.429565	-238.843948	1041.656372
7777.496793	-351.092316	-242.175323	1032.188110
7777.500123	-356.936859	-245.623627	1023.596741
7777.503457	-362.372284	-249.247223	1012.375305
7777.506790	-368.041504	-252.111053	1004.601990
7777.510122	-374.178253	-255.442444	993.906494
7777.513458	-378.853882	-258.656921	985.315063
7777.516790	-382.945038	-260.936279	975.496216
7777.521484	-391.302704	-266.663940	956.676758
7777.524392	-396.387482	-269.060181	947.734680
7777.527761	-399.777313	-271.982452	936.513123
7777.531059	-403.400940	-273.852722	927.746399
7777.534330	-407.784302	-276.424316	917.635376
7777.537642	-410.940399	-279.171234	907.875000
7777.540541	-413.979523	-281.742859	897.413269
7777.543876	-416.668030	-284.139099	887.009888
7777.547211	-421.168304	-286.126251	877.132690
7777.550544	-423.856812	-288.230286	866.437134
7777.553450	-425.960815	-290.158966	855.507935
7777.556789	-429.584442	-292.379883	846.098267
7777.560119	-430.987152	-293.724152	836.630066
7777.563446	-433.208069	-296.003510	824.940979
7777.566777	-436.831665	-297.815308	814.011658
7777.570167	-438.292816	-299.451782	804.426697
7777.573451	-440.747498	-300.796021	793.848022
7777.576793	-442.910004	-301.848053	783.386353
7777.580116	-444.955566	-302.900055	771.931030
7777.583451	-446.942688	-304.361176	762.053772
7777.586781	-448.111633	-304.770325	751.066101
7777.590118	-450.098785	-305.413208	739.260132
7777.593446	-451.910583	-305.530090	730.201050
7777.596779	-452.378113	-306.699005	720.265320
7777.600115	-453.547028	-306.173004	710.212769
7777.603445	-453.897705	-306.114563	700.510864
7777.606785	-455.125092	-306.406769	691.627136
7777.610118	-455.767944	-306.348328	681.983643
7777.613471	-456.293945	-306.231445	673.275269
7777.616780	-456.469299	-306.932800	664.157837
7777.620110	-456.820007	-306.406769	655.274109
7777.623446	-457.462860	-306.348328	647.500916
7777.626779	-457.579803	-305.530090	638.734131
7777.630114	-457.229065	-305.646973	631.603760
7777.634770	-457.170654	-304.594971	614.362366
7777.637677	-456.703064	-304.711853	608.751648
7777.640963	-456.703064	-303.952087	600.627747
7777.644316	-456.469299	-303.426056	593.205200
7777.647643	-454.832825	-302.958496	586.600830
7777.650556	-455.125092	-303.484528	579.938110
7777.653902	-454.715942	-302.607819	574.151978
7777.657279	-453.488586	-302.432495	567.723022
7777.660558	-453.313232	-301.964935	560.651123
7777.663870	-452.202789	-301.497375	554.338989
7777.666778	-450.858521	-301.322052	548.143799
7777.670102	-450.741669	-299.977783	542.708374
7777.673443	-449.455872	-300.386902	535.461121
7777.676771	-448.754547	-300.270020	530.376404
7777.680110	-447.118042	-299.568665	523.304504
7777.683440	-446.942688	-299.393341	517.810608
7777.686772	-444.955566	-298.049103	509.978912
7777.690103	-443.845123	-298.282867	505.420258
7777.693438	-442.617737	-297.698425	498.757416
7777.696771	-441.507294	-297.230835	492.737549
7777.700119	-440.455292	-296.587952	486.717682
7777.703440	-438.935699	-295.594391	480.522461
7777.706774	-438.701904	-295.535919	474.502625
7777.710104	-437.883698	-293.607239	469.067230
7777.713438	-435.662781	-294.308594	461.995300
7777.716771	-435.604309	-293.724152	455.683197
7777.720128	-434.201599	-291.561676	449.604919
7777.723436	-432.214478	-291.795441	444.111053
7777.726764	-431.104034	-289.983643	439.318481
7777.730105	-430.052032	-289.691406	433.883118
7777.733437	-430.110443	-288.814728	428.623047
7777.736765	-428.415527	-287.879608	424.298065
7777.740098	-426.837524	-286.535370	419.680847
7777.743446	-426.720612	-285.483337	415.589691
7777.748057	-424.149017	-283.788422	407.173553
7777.750976	-423.038574	-283.087067	403.257721
7777.754370	-421.518982	-281.684387	399.867889
7777.757692	-421.928101	-281.509064	396.478058
7777.761062	-419.531860	-280.398590	392.971344
7777.764280	-419.531860	-279.521942	388.821716
7777.767195	-418.772064	-278.411438	387.126801
7777.770520	-417.603149	-278.177673	384.146088
7777.773857	-416.200470	-277.943878	381.048492
7777.777182	-415.674438	-277.242554	378.593811
7777.780099	-414.447113	-276.716522	376.022186
7777.783428	-413.862640	-276.132080	374.561066
7777.786768	-413.570435	-275.138519	372.515472
7777.790095	-413.044403	-275.313843	370.352997
7777.793435	-411.875519	-274.203369	368.424286
7777.796764	-411.057281	-274.495605	366.203369
7777.800091	-410.531281	-274.144958	363.398010
7777.803429	-408.485687	-273.969604	361.293976
7777.806766	-409.011688	-273.268250	359.540619
7777.810092	-407.550568	-273.326721	358.547058
7777.813429	-407.141449	-272.917603	355.916992
7777.816766	-405.855652	-272.683807	353.812958
7777.820092	-405.212738	-271.807129	352.293365
7777.823428	-403.693146	-271.281128	350.130920
7777.826759	-403.810059	-272.274689	347.267090
7777.830105	-403.108673	-271.339569	345.455261
7777.833427	-402.232025	-270.638214	343.701904
7777.836756	-400.829346	-271.222687	340.954987
7777.840089	-400.829346	-270.696686	339.201630
7777.843428	-399.660431	-269.703094	337.448273
7777.846752	-398.842194	-269.703094	335.811798
7777.850091	-398.199310	-268.767975	333.590851
7777.853425	-398.140839	-268.241974	331.954407
7777.856753	-397.673248	-267.949738	330.142609
7777.861017	-395.744598	-267.073059	327.220306
7777.864379	-395.510803	-267.715973	325.992981
7777.867607	-395.160126	-266.780853	324.064270
7777.870934	-394.867889	-266.430145	324.064270
7777.874278	-394.108154	-265.319702	323.713623
7777.877182	-394.400360	-266.137909	321.726471
7777.880511	-394.108154	-265.319702	322.194031
7777.883841	-393.932770	-265.436584	321.492676
7777.887193	-394.283478	-264.910583	320.382202
7777.890555	-394.049683	-264.793701	320.732880
7777.893415	-393.699005	-265.202789	321.258911
7777.896763	-393.932770	-265.202789	320.732880
7777.900083	-393.874359	-264.618347	321.434235
7777.903450	-394.341888	-265.027466	321.141998
7777.906750	-393.874359	-265.378143	322.427795
7777.910089	-395.393921	-265.202789	322.544708
7777.913422	-395.101685	-265.319702	323.246063
7777.916766	-394.926331	-265.670349	323.947388
7777.920085	-394.458801	-266.021057	325.876099
7777.923418	-395.101685	-266.722382	326.986542
7777.926749	-394.926331	-267.014618	327.337219
7777.930083	-395.101685	-266.605469	327.629456
7777.933418	-395.277008	-267.715973	329.791931
7777.936745	-396.621277	-267.774414	330.610168
7777.940076	-396.971924	-268.183533	332.071289
7777.943413	-397.556396	-268.358856	332.597290
7777.946757	-397.030396	-268.884857	334.000000
7777.950074	-397.147278	-269.586212	335.110443
7777.953411	-397.907043	-269.936890	335.811798
7777.956771	-397.322601	-270.053772	337.156036
7777.960087	-398.959106	-270.638214	338.324951
7777.963412	-398.959106	-271.573334	339.201630
7777.966742	-398.783752	-271.631805	340.487427
7777.970080	-399.368164	-272.157806	340.838104
7777.974705	-399.894226	-272.859161	343.994141
7777.977644	-400.829346	-273.852722	345.689056
7777.980955	-401.530670	-274.028046	346.390381
7777.984336	-401.706024	-273.911163	348.026886
7777.987655	-402.056671	-275.430725	348.845093
7777.990559	-402.816467	-275.664520	349.897125
7777.993831	-402.758026	-275.839874	351.767365
7777.997165	-403.108673	-276.307434	353.579193
7778.000505	-403.576263	-276.774994	355.332550
7778.003410	-404.803589	-276.891876	357.553467
7778.006745	-405.504974	-277.593231	359.891266
7778.010071	-406.498505	-278.352997	362.638214
7778.013402	-408.076569	-278.645233	364.976013
7778.016739	-408.251892	-278.762146	367.196930
7778.020096	-409.070160	-280.047913	369.417877
7778.023403	-410.239014	-280.807709	373.099915
7778.026737	-411.349487	-281.333710	376.431335
7778.030069	-412.109253	-281.859741	379.061371
7778.033411	-414.330231	-282.035065	383.269440
7778.036737	-415.440704	-282.677979	387.126801
7778.040073	-415.557556	-284.314423	390.750427
7778.043408	-417.603149	-285.074219	395.952057
7778.046779	-417.369354	-285.950897	398.465240
7778.050069	-419.122742	-287.119812	403.666840
7778.053406	-419.882538	-287.938049	407.524231
7778.056741	-420.876099	-288.522491	412.667450
7778.060066	-422.044983	-289.457611	416.992401
7778.063431	-423.038574	-291.152527	421.492706
7778.066735	-424.032166	-291.795441	426.752777
7778.070072	-425.843933	-293.256592	430.376373
7778.073398	-426.369934	-294.542358	434.876648
7778.076737	-426.954407	-295.711304	440.253662
7778.080070	-427.714203	-296.354187	445.396820
7778.083396	-428.590851	-298.165985	449.604919
7778.087610	-430.870239	-299.977783	458.313263
7778.091054	-432.272949	-300.328461	464.683807
7778.094332	-432.623627	-301.906464	469.184082
7778.097592	-434.376953	-302.257172	474.677979
7778.100533	-434.669189	-304.010529	479.061340
7778.103821	-435.487457	-304.361176	483.444763
7778.107170	-436.188782	-304.711853	488.061920
7778.110492	-437.416107	-305.530090	493.088226
7778.113822	-438.117432	-307.517242	499.517242
7778.116731	-438.760376	-308.043243	503.549957
7778.120064	-439.227966	-308.335480	508.926910
7778.123395	-440.163086	-309.445953	514.888367
7778.126726	-441.039734	-309.855072	519.388672
7778.130067	-442.267059	-311.140869	525.876099
7778.133395	-443.143799	-311.666870	531.603760
7778.136753	-444.429565	-312.660431	537.623657
7778.140067	-444.780243	-312.601990	544.169556
7778.143430	-445.832245	-313.770905	551.182922
7778.146722	-446.358246	-313.829346	558.254822
7778.150070	-448.053162	-314.647552	565.209839
7778.153391	-446.884277	-315.582703	572.457092
7778.156721	-447.994751	-316.225616	579.645813
7778.160059	-449.689667	-316.576263	586.425476
7778.163391	-450.624786	-316.926941	595.659912
7778.166726	-450.390991	-316.985382	603.491577
7778.170053	-450.916992	-317.745178	611.966125
7778.173394	-450.507874	-318.154297	620.382263
7778.176724	-450.040344	-318.855621	629.324402
7778.180062	-449.572754	-319.440094	638.500305
7778.183388	-450.858521	-319.556976	646.682678
7778.186741	-449.397400	-320.492126	656.852173
7778.190057	-449.923401	-320.375214	665.151428
7778.193390	-450.390991	-320.842773	674.970215
7778.196717	-449.046753	-321.018097	683.795471
7778.200973	-447.585632	-321.018097	702.381104
7778.204243	-446.825836	-321.193451	712.258362
7778.207574	-445.364716	-321.135010	721.551147
7778.210914	-444.020447	-321.719452	730.785522
7778.214256	-443.143799	-321.602570	739.786133
7778.217149	-441.390411	-320.550537	748.903564
7778.220499	-439.870819	-320.609009	759.073059
7778.223832	-439.403290	-320.550537	767.723022
7778.227171	-437.533020	-320.433685	777.483398
7778.230101	-435.487457	-320.316772	786.133301
7778.233390	-433.792542	-319.907654	795.426086
7778.236721	-431.513153	-318.972534	804.660400
7778.240056	-430.052032	-318.446533	812.959656
7778.243387	-428.766205	-318.154297	822.135620
7778.246713	-426.779053	-317.277618	831.253052
7778.250055	-423.798370	-315.874908	842.825256
7778.253386	-421.577454	-315.348907	851.416687
7778.256718	-420.116333	-313.127991	860.183533
7778.260051	-416.200470	-311.725311	868.891907
7778.263384	-413.921112	-311.199280	879.821228
7778.266717	-411.407928	-309.153717	889.932251
7778.270048	-408.602570	-307.341888	898.582153
7778.273399	-404.452942	-305.822327	908.517822
7778.276712	-401.589142	-303.309174	917.986023
7778.280047	-398.491516	-301.731140	928.622986
7778.283381	-393.815887	-299.451782	939.844543
7778.286706	-390.309174	-297.172424	950.072510
7778.290042	-385.575104	-294.074799	959.540649
7778.293377	-380.198120	-291.269440	969.301025
7778.296730	-375.873169	-288.756287	979.938049
7778.300047	-370.729950	-285.424896	991.101074
7778.303383	-365.937469	-282.327301	1000.569275
7778.306713	-359.391571	-279.112793	1011.089417
7778.310045	-353.488586	-275.722961	1020.674500
7778.314225	-341.448853	-268.943298	1040.487427
7778.317605	-334.552307	-264.969025	1050.715332
7778.320918	-328.181763	-261.403870	1060.125000
7778.324311	-320.934540	-257.780243	1070.177612
7778.327165	-313.278198	-253.513733	1080.347046
7778.330485	-305.563416	-249.071899	1088.880127
7778.333838	-298.257751	-245.331390	1097.646973
7778.337140	-290.484497	-240.305084	1105.829224
7778.340477	-282.302155	-236.798370	1112.609009
7778.343369	-274.412018	-232.590302	1121.083496
7778.346740	-266.521912	-228.265350	1128.622925
7778.350041	-259.099365	-224.407944	1136.630005
7778.353371	-250.683228	-219.615417	1143.526611
7778.356704	-242.267090	-215.115128	1149.429565
7778.360042	-233.500275	-210.497955	1155.975342
7778.363368	-224.967255	-206.348328	1163.222656
7778.366707	-216.843353	-200.445358	1168.950317
7778.370039	-208.193451	-196.003494	1174.210449
7778.373368	-199.894196	-191.269440	1179.353516
7778.376704	-191.244308	-186.243134	1185.139648
7778.380031	-182.477493	-180.632370	1188.880127
7778.383397	-173.418457	-175.547638	1193.848022
7778.386702	-165.119217	-170.813553	1197.646973
7778.390040	-156.235535	-165.378143	1201.913452
7778.393364	-147.351837	-160.001175	1206.998169
7778.396699	-138.175919	-153.572174	1209.336060
7778.400035	-128.473984	-147.435410	1211.732300
7778.403390	-119.239624	-142.116898	1215.589722
7778.406700	-109.070129	-135.629456	1218.921021
7778.410035	-99.368210	-129.492706	1221.960205
7778.413371	-89.841614	-122.654587	1222.661499
7778.416693	-79.379898	-116.985397	1224.298096
7778.420032	-69.035065	-109.796608	1225.992920
7778.424709	-47.760960	-95.769730	1228.739868
7778.427635	-37.299236	-89.282295	1228.681396
7778.430963	-27.012852	-82.502632	1230.493164
7778.434258	-15.732899	-75.372292	1228.681396
7778.437538	-4.862064	-68.592636	1228.915283
7778.440871	6.417887	-61.871422	1227.804687
7778.443792	17.464058	-55.033310	1226.109863
7778.447132	28.919348	-48.019875	1226.168335
7778.450457	40.608418	-41.240208	1225.116333
7778.453815	51.888374	-34.694332	1221.434204
7778.456694	63.051434	-27.973114	1220.265381
7778.460024	74.039162	-21.427238	1215.765015
7778.463393	84.325546	-14.939802	1213.193481
7778.466692	95.371712	-8.160141	1210.855591
7778.470062	105.891876	-1.731152	1207.231934
7778.473356	116.470490	3.704267	1201.796631
7778.476715	126.230865	10.016365	1198.874268
7778.480021	135.582123	16.737579	1193.146606
7778.483358	145.225601	22.056107	1188.529419
7778.486692	155.511978	27.842197	1184.087646
7778.490026	164.746353	33.511398	1179.002930
7778.493356	172.870255	38.713036	1174.035034
7778.496696	182.104630	44.148449	1169.417847
7778.500026	190.228531	49.174751	1163.573364
7778.503355	198.995331	54.201054	1157.962524
7778.506713	207.177689	59.694916	1152.410278
7778.510026	215.360031	64.662766	1147.091675
7778.513356	223.133270	69.805962	1140.487427
7778.516688	230.497375	74.773819	1134.993530
7778.520027	237.978378	79.449448	1127.980103
7778.523358	245.926941	84.709526	1121.258911
7778.526686	252.589722	89.268265	1114.888306
7778.530019	259.661621	93.651665	1108.693115
7778.533355	266.791931	98.561073	1100.744629
7778.537640	280.351257	108.789009	1086.366943
7778.540870	287.189362	113.347748	1080.405518
7778.544247	293.676788	117.848038	1071.521851
7778.547532	300.222687	122.173004	1063.690186
7778.550902	306.476349	127.082413	1055.040283
7778.553786	313.898895	131.465805	1048.026733
7778.557131	319.275879	135.849213	1039.084717
7778.560512	325.880219	140.232605	1030.376343
7778.563806	332.484528	144.206894	1020.966736
7778.567108	338.445923	148.414963	1011.557068
7778.570020	343.939819	152.623016	1003.433167
7778.573351	348.849213	155.662186	993.380432
7778.576682	355.044434	159.870255	985.256592
7778.580014	360.479858	163.844543	976.022278
7778.583349	365.973694	167.000580	966.554077
7778.586714	371.000000	170.799530	957.787231
7778.590015	375.383423	173.371124	949.488098
7778.593348	380.643494	175.884277	938.792542
7778.596679	384.500885	179.507889	929.908875
7778.600016	389.410278	182.839279	921.551147
7778.603348	394.378143	185.060196	912.258362
7778.606681	397.066620	187.456451	903.023987
7778.610008	401.391602	189.969620	894.783203
7778.613344	404.839874	192.599640	885.782654
7778.616685	408.171265	194.353012	878.827576
7778.620013	410.918182	196.866150	869.885437
7778.623352	413.782013	198.736404	861.936890
7778.626683	416.295166	201.307999	853.637695
7778.630091	419.392761	202.593811	846.799561
7778.633375	421.379913	204.405609	839.493835
7778.636679	423.951508	205.399185	831.603699
7778.640005	426.113983	206.918762	825.233154
7778.643346	428.451782	208.379883	817.226257
7778.646674	430.088257	210.250137	808.693237
7778.651296	433.010529	213.172424	795.075439
7778.654260	434.296326	215.334885	787.419067
7778.657549	436.283447	216.036240	780.756287
7778.660967	437.393921	217.029800	773.625977
7778.664318	438.913513	218.607819	766.846252
7778.667118	440.842224	219.835175	760.651123
7778.670437	441.660400	221.296326	752.468750
7778.673798	442.186462	222.289886	747.091797
