time (s)	magX	magY	magZ
7366.559626	-148.705429	82.756287	-11.354763
7366.563413	-150.926361	83.632965	-11.763881
7366.566733	-152.095276	85.094101	-13.634132
7366.570099	-153.790192	86.146118	-13.809468
7366.573415	-154.959091	87.431915	-15.095265
7366.576729	-157.063126	88.191704	-16.497955
7366.580047	-159.634720	89.126823	-17.491524
7366.583369	-161.212738	90.880188	-18.485096
7366.586682	-163.024551	92.107544	-20.063122
7366.589961	-164.427231	93.334900	-21.232029
7366.593405	-166.765045	94.971367	-22.517826
7366.596740	-169.278198	95.964943	-22.926943
7366.600037	-171.382233	97.893623	-23.920515
7366.603424	-173.486267	98.711868	-25.966103
7366.606748	-175.005844	100.056107	-27.251900
7366.610025	-177.928116	101.400360	-28.128580
7366.613432	-180.499710	102.627701	-30.407949
7366.616780	-182.428406	104.439514	-32.044418
7366.620089	-185.818237	106.075989	-32.687317
7366.623396	-187.805374	107.537109	-34.674461
7366.626710	-190.435425	108.764465	-36.953827
7366.629993	-193.533020	109.991821	-37.888954
7366.633377	-195.929276	111.862068	-40.168320
7366.636734	-198.734650	113.732323	-42.564583
7366.640040	-201.715363	115.368790	-44.201050
7366.643338	-205.163651	116.888374	-46.714203
7366.646698	-208.319702	118.466400	-48.876678
7366.650014	-211.125076	120.687325	-51.682060
7366.653415	-214.164215	121.973122	-54.428986
7366.656702	-217.904739	124.077156	-57.234367
7366.660009	-221.645248	126.005852	-59.864410
7366.663385	-225.093521	128.285202	-62.786674
7366.666675	-228.658691	130.506134	-66.527176
7366.670017	-232.106964	133.019287	-70.267677
7366.673360	-236.373459	134.947983	-73.131508
7366.676679	-240.932220	137.753357	-77.398010
7366.680074	-244.672714	140.266495	-80.963181
7366.683365	-248.880768	143.305664	-85.229691
7366.686694	-253.030396	145.468140	-90.139099
7366.690063	-257.063110	148.156631	-94.756287
7366.693366	-261.680298	151.078888	-100.659264
7366.696773	-266.180603	154.118042	-105.276443
7366.700115	-270.739319	157.566330	-111.062546
7366.703408	-274.362946	160.605484	-117.199303
7366.706756	-279.506134	163.761536	-122.284050
7366.710096	-283.889557	166.742249	-128.479248
7366.713384	-288.682068	170.132080	-135.784927
7366.716736	-293.825256	173.755692	-141.570999
7366.720029	-298.033325	177.087082	-148.759781
7366.723415	-303.468750	180.886032	-156.240799
7366.726703	-308.144379	184.158966	-162.728226
7366.730038	-312.995331	187.957916	-170.501450
7366.733312	-318.080078	191.172409	-177.982452
7366.736655	-323.047943	195.205139	-186.690811
7366.740038	-327.665100	197.952072	-194.639374
7366.743357	-332.983612	202.218582	-202.763290
7366.746651	-337.951477	206.017517	-211.646988
7366.749957	-343.328461	209.874924	-221.173569
7366.753300	-348.413208	213.089417	-230.583282
7366.756698	-353.731750	216.596130	-241.512558
7366.759982	-359.108704	219.927521	-251.039139
7366.763310	-364.953247	223.784927	-261.617767
7366.766661	-369.804199	228.051422	-272.956146
7366.770002	-374.830505	231.441254	-284.703674
7366.773334	-380.382812	234.071304	-297.210968
7366.776659	-385.876678	237.987137	-309.718292
7366.779993	-391.136749	241.201645	-322.459381
7366.783377	-396.513702	244.883682	-336.720032
7366.786705	-401.072479	247.864426	-351.039154
7366.790013	-406.449432	251.195786	-366.410278
7366.793341	-411.417297	254.410294	-381.547638
7366.796647	-416.092926	257.741669	-397.327881
7366.800098	-420.476349	261.073059	-413.809448
7366.803374	-424.625946	264.346008	-431.518402
7366.806675	-428.541779	267.034485	-448.935120
7366.810008	-432.165405	270.248962	-466.760956
7366.813365	-435.555237	273.463470	-487.216858
7366.816672	-438.243744	275.976624	-507.088226
7366.820022	-440.230865	278.782013	-527.368835
7366.823779	-442.393311	281.002930	-547.649353
7366.827059	-443.679169	282.697845	-569.157227
7366.830383	-445.198730	285.094116	-591.308044
7366.833743	-445.549408	286.496796	-613.926392
7366.837098	-444.497345	288.659271	-636.427856
7366.840386	-442.802429	289.886627	-660.039795
7366.843701	-441.808899	290.821747	-683.242615
7366.847005	-439.821747	291.523102	-707.029846
7366.850392	-436.490356	292.516663	-730.232666
7366.853707	-432.574524	292.107544	-755.013428
7366.857044	-427.489777	291.172424	-778.800720
7366.860330	-421.937469	289.652832	-802.587952
7366.863632	-416.151398	289.419067	-827.544128
7366.866905	-409.021057	286.730560	-852.792603
7366.870217	-400.429596	284.392761	-877.164307
7366.873624	-392.422546	281.061371	-902.061951
7366.876960	-382.486847	277.613098	-925.966125
7366.880251	-373.018707	273.288147	-950.513184
7366.883545	-361.914062	268.787842	-973.949768
7366.886848	-350.049683	262.826447	-997.620117
7366.890227	-337.893036	257.157227	-1021.758118
7366.893529	-324.041504	250.611343	-1043.908691
7366.896848	-310.657501	243.071884	-1066.234985
7366.900188	-295.578613	235.649323	-1088.444092
7366.903467	-279.272339	227.525421	-1109.776733
7366.906799	-263.024567	219.050842	-1129.706543
7366.910139	-245.900055	209.173584	-1149.811768
7366.913942	-228.892456	199.296310	-1168.806519
7366.916823	-210.189957	188.425476	-1187.859741
7366.920182	-191.370544	176.794846	-1204.107544
7366.923524	-171.557571	165.047333	-1219.712402
7366.926843	-151.160141	153.708939	-1234.791382
7366.930582	-129.652252	141.961426	-1249.402710
7366.933890	-109.137924	129.278778	-1260.974854
7366.937231	-86.578026	117.063705	-1272.663940
7366.940563	-64.135010	103.679726	-1282.599609
7366.943867	-41.341324	90.938637	-1291.191040
7366.947210	-18.664524	78.372887	-1297.678589
7366.950505	5.064290	65.164230	-1303.172363
7366.953867	30.020454	52.832260	-1306.036255
7366.957309	53.281708	39.682056	-1308.198730
7366.960603	77.127411	27.116306	-1308.900024
7366.963871	100.213326	14.901227	-1307.497314
7366.967204	123.240791	3.036820	-1303.230835
7366.970522	147.086502	-10.171829	-1299.256592
7366.973923	169.587952	-21.744011	-1292.944336
7366.977258	192.264755	-32.088837	-1284.820557
7366.980535	213.421982	-43.076565	-1275.644653
7366.983820	234.754532	-53.655174	-1264.130859
7366.987126	254.625946	-63.532436	-1251.857300
7366.990459	273.620697	-73.117477	-1238.590332
7366.993814	291.855621	-82.994743	-1222.751587
7366.997126	310.499695	-91.703094	-1207.088257
7367.000499	326.630615	-99.593216	-1191.191040
7367.003787	343.345978	-107.775566	-1173.306763
7367.007162	358.658691	-115.256577	-1155.071899
7367.010487	373.562256	-123.497368	-1135.200439
7367.013796	386.011108	-130.393921	-1115.679687
7367.017116	397.758606	-137.232025	-1095.340698
7367.020411	409.856812	-144.128586	-1074.008179
7367.023859	420.143219	-149.739334	-1052.383423
7367.027181	429.552887	-155.174759	-1030.524780
7367.030503	437.793671	-161.194626	-1007.964905
7367.033876	445.391602	-165.694916	-985.521912
7367.037214	452.638794	-170.955002	-963.780212
7367.040518	458.600220	-175.338394	-941.629456
7367.043876	463.626526	-179.780243	-919.186401
7367.047183	468.068390	-183.286972	-896.860352
7367.050519	472.334900	-186.559921	-873.189941
7367.053797	475.607819	-190.475754	-852.032776
7367.057144	477.711853	-193.573349	-829.005249
7367.060432	479.815887	-196.495621	-807.146790
7367.063804	481.335480	-198.599655	-785.171265
7367.067156	482.153687	-200.353012	-763.897156
7367.070450	482.387482	-202.340164	-742.623047
7367.073777	482.504395	-204.151962	-721.465881
7367.077137	481.686157	-205.145538	-699.782593
7367.080492	480.751038	-206.314438	-678.917603
7367.083863	479.523651	-206.489777	-659.572205
7367.087159	478.004120	-207.074219	-638.122803
7367.090470	476.075409	-206.957336	-618.192871
7367.093839	473.679138	-207.307999	-598.964355
7367.097166	471.399780	-206.840439	-580.261902
7367.100441	468.243744	-206.080658	-560.974915
7367.103784	466.315033	-205.554657	-543.324402
7367.107095	462.106934	-204.970200	-524.914124
7367.110496	458.600220	-203.684402	-508.198700
7367.113792	455.268860	-203.216843	-491.775543
7367.117121	451.236145	-200.879028	-473.891296
7367.120475	447.670959	-199.651672	-458.052582
7367.123780	443.988892	-197.664520	-442.915253
7367.127196	439.488586	-196.612518	-427.368774
7367.130531	434.579163	-195.209824	-413.049683
7367.133828	430.663330	-192.930466	-398.847443
7367.137176	425.753967	-191.293991	-385.931030
7367.140518	421.370544	-189.891296	-373.306854
7367.143803	417.045593	-187.553482	-360.331970
7367.147149	411.902405	-185.683228	-348.233765
7367.150860	406.817627	-183.988327	-335.960236
7367.154552	403.369354	-182.001175	-325.732330
7367.157888	398.752197	-180.598480	-315.036804
7367.161215	393.492126	-178.552902	-304.282867
7367.164549	388.465790	-176.916428	-294.347168
7367.167915	384.082397	-175.221512	-284.528351
7367.171215	379.465240	-173.643494	-276.229095
7367.174570	374.322052	-172.357697	-267.053162
7367.177881	369.821747	-170.428986	-258.403290
7367.181217	364.327881	-169.084747	-250.688477
7367.184550	360.002899	-167.214508	-243.499710
7367.187881	355.093506	-165.694916	-236.077133
7367.191219	350.943878	-164.584457	-228.479233
7367.194545	346.385162	-162.889542	-221.290466
7367.197882	341.592621	-161.428406	-215.329041
7367.201215	337.559906	-160.084167	-207.906479
7367.204546	333.293396	-158.681473	-201.302155
7367.207884	329.202209	-156.811218	-195.574509
7367.211241	325.052612	-155.525436	-188.911743
7367.214542	320.143188	-154.298080	-183.417877
7367.217895	316.461121	-152.544708	-178.508469
7367.221215	312.311523	-150.616013	-172.547043
7367.224549	308.103455	-149.096436	-167.462296
7367.227874	303.953827	-147.810638	-161.793091
7367.231212	299.921082	-145.881958	-157.234360
7367.234544	296.940399	-143.602570	-152.208069
7367.237880	293.433655	-142.608994	-147.473984
7367.241215	289.751617	-141.907654	-143.675034
7367.244544	286.420227	-140.212753	-140.109863
7367.247875	282.855042	-138.225601	-135.668030
7367.251212	279.523682	-136.706024	-130.700165
7367.254576	276.309174	-135.069550	-127.427238
7367.257871	272.685577	-133.316193	-123.862068
7367.261208	270.639984	-132.322617	-120.472244
7367.264542	267.776154	-131.270615	-117.082405
7367.267877	264.386353	-128.874344	-113.458794
7367.271204	261.756287	-127.588539	-110.068970
7367.274537	259.476929	-126.594963	-107.380478
7367.277897	256.729980	-125.016945	-104.633553
7367.281205	253.690826	-123.789589	-102.061958
7367.284541	251.177673	-122.679131	-99.373466
7367.287873	249.716537	-121.744003	-96.801872
7367.291203	247.261841	-120.282867	-94.639397
7367.294538	245.157806	-119.172409	-92.360023
7367.297893	242.586197	-118.237282	-89.203972
7367.301205	240.599075	-117.594391	-87.918175
7367.304539	238.670364	-116.659264	-85.346581
7367.307868	236.683212	-115.841026	-83.242554
7367.311208	234.637634	-115.022797	-81.956757
7367.314537	232.650513	-114.321449	-79.385162
7367.317865	230.663361	-112.977196	-78.859146
7367.321199	229.494446	-113.386322	-77.047340
7367.324535	227.799530	-112.334305	-75.878433
7367.327871	225.344833	-111.925186	-74.767975
7367.331205	223.533020	-111.165398	-73.248398
7367.334530	222.422562	-110.639389	-71.904152
7367.337870	220.493851	-110.230270	-69.624786
7367.341197	219.383392	-109.412041	-69.157219
7367.344555	217.922272	-108.944481	-67.754524
7367.347869	215.876694	-108.593803	-66.176506
7367.351198	214.766235	-107.775566	-65.708946
7367.354534	213.714203	-107.600227	-64.715370
7367.357860	212.545288	-107.249557	-62.728226
7367.361198	211.142593	-107.132668	-62.845116
7367.364533	210.441269	-106.255989	-61.033318
7367.367866	208.512573	-105.788429	-60.156631
7367.371201	207.869659	-105.087082	-59.279953
7367.374530	206.759201	-105.203972	-58.695496
7367.377863	205.239624	-104.327293	-56.766808
7367.381198	204.187607	-104.327293	-56.825249
7367.384550	203.486267	-103.567505	-55.890121
7367.387862	202.668030	-103.450615	-55.948570
7367.391195	202.492691	-103.099937	-55.130333
7367.394531	201.440674	-102.457039	-54.253654
7367.397859	200.680893	-102.164818	-53.552307
7367.401195	200.330215	-101.346581	-53.318527
7367.404527	199.804214	-101.463470	-52.208061
7367.407862	198.810638	-101.346581	-50.630043
7367.411188	198.343079	-100.879021	-51.682060
7367.414557	197.933960	-100.469894	-50.220924
7367.417863	197.115723	-100.236115	-50.162476
7367.421195	197.291046	-99.710106	-50.396263
7367.424529	196.648163	-99.885445	-49.402687
7367.427867	196.472824	-99.593216	-48.526009
7367.431195	195.888367	-99.710106	-48.584457
7367.434527	196.005264	-99.125648	-49.110466
7367.437858	195.713028	-99.651665	-48.292229
7367.441193	195.771484	-99.184097	-48.350670
7367.444521	196.239044	-99.300987	-48.759789
7367.447858	195.537704	-99.768555	-48.058449
7367.451187	195.420807	-99.593216	-48.350670
7367.454527	195.537704	-100.060783	-48.818237
7367.457861	195.713028	-100.411453	-48.876678
7367.461190	196.180588	-100.586784	-49.052017
7367.464520	195.771484	-100.645233	-48.935127
7367.467851	195.888367	-100.879021	-49.519577
7367.471188	196.239044	-101.229691	-49.052017
7367.474518	196.180588	-101.872589	-49.461136
7367.477859	195.596146	-102.281708	-51.039162
7367.481242	196.355927	-102.690819	-50.922264
7367.484516	196.881943	-102.866158	-51.506721
7367.487874	197.817062	-103.333725	-51.857391
7367.491186	198.226181	-103.392166	-52.441849
7367.494514	198.401520	-104.268845	-52.850967
7367.497854	198.752182	-104.035065	-53.026299
7367.501190	199.628860	-104.561073	-53.786087
7367.504518	200.447113	-105.613091	-54.370544
7367.507846	201.382233	-105.905319	-55.422562
7367.511181	201.557571	-106.548210	-55.773232
7367.514517	201.849792	-106.840439	-56.416130
7367.517855	202.901810	-106.548210	-56.942139
7367.521183	204.246063	-107.717117	-58.227936
7367.524513	204.655167	-107.717117	-58.578606
7367.527846	205.414963	-109.119812	-59.221512
7367.531188	206.174759	-109.061363	-59.747520
7367.534516	207.343658	-109.821159	-60.331970
7367.537846	208.395676	-110.347168	-60.039742
7367.541177	209.447693	-111.048515	-61.617767
7367.544516	210.207474	-111.282295	-62.552895
7367.547862	211.317932	-111.866737	-64.364700
7367.551182	213.012848	-112.568085	-65.299820
7367.554510	214.357101	-113.035645	-67.111633
7367.557845	214.824661	-113.736992	-67.988312
7367.561176	216.811813	-114.613670	-68.806549
7367.564514	218.389832	-115.548790	-69.332558
7367.567847	219.850952	-116.191704	-72.079491
7367.571174	221.545868	-117.302162	-73.832848
7367.574534	222.714798	-118.120399	-74.300415
7367.577848	224.526581	-119.113960	-76.462883
7367.581179	226.163071	-120.224434	-77.982468
7367.584508	227.215088	-121.334892	-79.443604
7367.587846	229.611343	-122.445351	-81.839867
7367.591173	230.955597	-123.438927	-84.294571
7367.594505	232.942719	-124.666275	-86.281708
7367.597845	235.222092	-126.068962	-87.859734
7367.601170	237.150772	-127.237869	-90.255989
7367.604508	239.605484	-129.108124	-93.119820
7367.607842	241.358871	-131.095261	-94.697838
7367.611175	243.696686	-132.381073	-97.795441
7367.614525	245.800705	-133.783752	-99.490364
7367.617872	247.787842	-135.127991	-102.938629
7367.621174	250.534790	-136.939804	-105.510223
7367.624503	252.580368	-138.517838	-107.964935
7367.627837	254.918182	-139.862076	-111.646988
7367.631189	256.671539	-141.790771	-114.686150
7367.634501	259.243164	-142.725891	-117.959084
7367.637838	262.106934	-144.596146	-120.998245
7367.641173	264.269440	-146.057281	-124.212746
7367.644509	266.899475	-148.161316	-128.187027
7367.647835	269.354187	-149.505554	-131.576843
7367.651165	271.925781	-151.025146	-135.551132
7367.654500	274.964935	-153.070724	-139.642303
7367.657833	277.653412	-154.707199	-143.382812
7367.661192	280.984802	-156.226776	-147.123306
7367.664505	283.439514	-158.097031	-151.974274
7367.667835	286.303345	-159.558151	-155.714783
7367.671166	290.160706	-161.603745	-160.331955
7367.674498	293.199890	-163.649338	-165.358261
7367.677831	295.829926	-165.052017	-169.566330
7367.681165	298.810638	-166.513153	-174.300400
7367.684526	302.551147	-168.734070	-179.911163
7367.687837	305.940979	-170.253662	-185.405029
7367.691625	309.681488	-172.474594	-190.840439
7367.694926	312.779083	-173.935715	-196.100525
7367.698259	315.993561	-175.864410	-201.711273
7367.701587	319.675629	-178.026886	-209.133835
7367.704924	324.351257	-180.189377	-213.984802
7367.708260	327.624176	-183.111633	-221.465805
7367.711583	331.306244	-184.689667	-228.128571
7367.714935	334.520752	-187.144363	-235.434235
7367.718286	338.202789	-189.599075	-242.506149
7367.721645	342.527771	-192.579788	-250.454712
7367.724919	346.502045	-195.092926	-258.637054
7367.728255	349.541199	-197.255402	-267.053162
7367.731578	352.989471	-200.353012	-275.586182
7367.734925	357.314423	-202.632385	-284.411438
7367.738252	361.522491	-205.846878	-294.347168
7367.741621	364.853882	-208.652252	-304.341309
7367.744911	368.886627	-211.340744	-314.160126
7367.748271	372.685577	-214.087677	-324.621857
7367.751606	376.309174	-217.068390	-335.317352
7367.754944	381.160126	-220.458221	-346.655731
7367.758244	384.082397	-223.205139	-358.227936
7367.761593	388.056702	-225.309189	-369.566345
7367.764929	391.329620	-228.757446	-382.132080
7367.768251	394.777893	-230.861496	-394.171844
7367.771580	398.927521	-234.134430	-407.906494
7367.774911	401.791351	-236.998245	-420.063110
7367.778245	405.590302	-239.277618	-434.089996
7367.781606	408.454132	-242.141434	-447.240204
7367.784951	411.843964	-244.596146	-461.559326
7367.788270	415.175323	-247.109299	-475.819977
7367.791599	418.389832	-249.330215	-492.652222
7367.794913	420.552277	-251.375824	-507.906494
7367.798247	423.065460	-253.772064	-523.920593
7367.801609	426.163055	-255.466980	-540.168335
7367.804917	429.319122	-257.804779	-556.299255
7367.808251	431.481598	-259.967285	-572.430176
7367.811575	433.118042	-261.019287	-589.145569
7367.814957	434.754547	-263.181763	-606.211609
7367.818269	436.332550	-265.753357	-624.212769
7367.821604	438.378143	-266.746918	-642.272400
7367.824946	439.079468	-268.208069	-661.208679
7367.828251	439.663910	-269.435425	-680.261902
7367.831576	439.780853	-270.604309	-698.087646
7367.834913	439.780853	-271.831665	-717.608459
7367.838246	439.137909	-272.357666	-736.310913
7367.841576	438.611938	-273.175903	-757.409729
7367.844940	438.261261	-274.695496	-776.930481
7367.848242	436.449432	-275.279938	-797.853943
7367.851593	433.877838	-275.163055	-818.426636
7367.854932	431.598450	-276.215057	-839.817627
7367.858265	428.910004	-276.273529	-861.734680
7367.861578	424.059052	-276.624176	-882.658142
7367.864902	420.435425	-276.039734	-904.808899
7367.868249	414.824677	-275.864380	-925.440125
7367.871567	409.272339	-275.572174	-947.181824
7367.874906	403.252502	-273.994141	-968.455933
7367.878240	396.531250	-273.234344	-988.853271
7367.881581	389.517822	-272.065460	-1010.770325
7367.884931	381.452362	-270.078308	-1031.518311
7367.888280	373.211578	-268.324951	-1053.026245
7367.891594	363.684967	-266.571564	-1073.540527
7367.894979	353.983063	-263.766205	-1093.937988
7367.898235	344.047333	-260.785492	-1113.750977
7367.901588	332.884277	-257.512573	-1132.278076
7367.904904	321.896545	-254.239624	-1151.857300
7367.908231	309.973694	-250.382233	-1170.384521
7367.911570	297.291046	-246.817062	-1187.333618
7367.914898	283.731720	-241.615433	-1203.230835
7367.918239	271.049072	-236.355347	-1218.251343
7367.921593	257.489746	-231.212158	-1233.447021
7367.924934	243.521317	-225.776749	-1247.473999
7367.928265	228.383987	-219.581528	-1262.143799
7367.931597	213.305084	-212.509659	-1274.066650
7367.934903	197.875519	-206.080658	-1285.872559
7367.938228	182.095261	-198.658096	-1296.334229
7367.941565	165.905899	-191.118652	-1306.270020
7367.944911	149.716537	-182.644073	-1315.679687
7367.948698	132.475159	-175.163071	-1322.926880
7367.952011	115.350677	-166.688492	-1329.823486
7367.955402	98.109291	-157.921677	-1335.375732
7367.958730	80.926361	-149.213333	-1339.466919
7367.961994	62.866741	-140.095856	-1343.850342
7367.965314	44.456459	-130.919937	-1346.071289
7367.968656	26.396845	-120.808876	-1347.123291
7367.972008	8.220339	-111.574509	-1348.233765
7367.975379	-10.891293	-102.047928	-1347.181763
7367.978747	-29.535358	-92.229103	-1344.610229
7367.982069	-48.004089	-82.293396	-1342.739990
