time (s)	magX	magY	magZ
7942.883588	256.856232	178.222092	918.979553
7942.886923	261.181183	180.209229	915.765076
7942.890247	264.454132	182.021042	909.745239
7942.893583	268.603729	183.423721	905.946289
7942.896913	272.168915	185.644653	899.108154
7942.900251	275.792511	187.690231	895.309143
7942.903583	278.305664	188.859146	890.867310
7942.906916	282.572174	190.963181	886.425476
7942.910279	285.377563	193.125656	881.340820
7942.913579	289.351837	195.229691	874.444214
7942.916917	291.689667	196.515488	869.943909
7942.920277	295.488617	198.677963	866.086487
7942.923582	297.767975	200.022217	860.592651
7942.928215	304.489197	202.769135	851.241394
7942.931127	306.476349	204.990067	846.741089
7942.934449	309.457062	206.977203	840.954956
7942.937834	312.087097	207.444763	836.454712
7942.941182	313.840454	209.022797	831.837585
7942.944046	316.061371	210.659271	827.512573
7942.947343	318.925201	211.594391	821.317383
7942.950675	321.029236	212.587967	817.693726
7942.954003	323.425507	213.523087	813.076599
7942.957353	325.646423	215.101105	809.160706
7942.960247	327.984222	215.977798	803.783813
7942.963617	330.263611	217.380493	800.043274
7942.966909	332.601410	218.432495	795.543030
7942.970248	334.296326	219.309174	790.049072
7942.973572	336.166595	220.185867	787.652893
7942.976905	337.627716	220.419632	782.977234
7942.980242	339.614868	221.530090	777.541809
7942.983574	341.192871	222.465225	772.807739
7942.986910	343.296936	223.108109	769.534790
7942.990241	345.517822	223.458801	767.021667
7942.993574	346.745178	224.803040	762.170654
7942.996907	348.089417	224.978363	757.904175
7943.000275	349.375244	225.855057	754.514343
7943.003574	351.829926	225.445923	751.767395
7943.006940	352.122162	226.907074	746.448853
7943.010235	354.167725	227.023972	743.760376
7943.013583	355.102875	227.783737	740.136780
7943.016905	356.914673	228.017532	736.805420
7943.020233	357.499146	228.777328	733.006409
7943.023569	358.668030	228.952667	729.207458
7943.026902	359.427826	229.595551	725.759216
7943.030238	361.298065	229.537125	722.018738
7943.033572	361.765625	230.180008	719.038025
7943.036903	363.168335	230.647583	714.829956
7943.040233	363.752777	232.108704	711.557007
7943.044445	365.739929	231.933365	705.887817
7943.047832	367.785522	232.634720	703.374634
7943.051188	368.019287	232.634720	699.634155
7943.054505	368.369965	234.271179	697.121033
7943.057753	369.538879	234.446518	694.257141
7943.060660	370.649323	234.388077	691.510254
7943.063988	370.473999	235.264771	688.120422
7943.067317	371.818237	235.381638	685.022766
7943.070656	371.818237	235.966095	683.035645
7943.073565	371.759796	235.732330	681.691406
7943.076900	372.461151	235.907669	678.301575
7943.080237	373.863831	236.725891	675.028687
7943.083560	373.980713	236.901230	674.210388
7943.086897	374.915863	236.842789	670.995911
7943.090232	374.915863	236.842789	668.950317
7943.093562	374.857391	237.602585	666.904724
7943.096899	375.500305	237.427231	664.800720
7943.100228	376.318542	237.719452	661.703125
7943.103561	376.493866	237.777908	660.943298
7943.106896	376.961426	237.251892	658.605530
7943.110267	377.838135	237.544128	656.676819
7943.113558	377.604340	237.018127	655.800110
7943.116894	378.247223	237.193451	653.228516
7943.120228	378.422546	237.310349	653.286987
7943.123590	379.182343	237.193451	650.364746
7943.126895	378.890106	237.661011	649.546509
7943.130229	380.526611	237.485687	648.728210
7943.133563	379.533051	237.777908	646.624207
7943.136894	380.351257	237.310349	646.741089
7943.140225	379.474579	237.777908	645.630676
7943.143563	379.825256	237.485687	644.286377
7943.146891	380.526611	237.135025	642.416138
7943.150222	381.111053	237.953247	641.481018
7943.153575	382.104614	237.485687	641.597900
7943.157834	381.753967	237.251892	639.435425
7943.161075	381.344818	237.894791	638.851013
7943.164404	381.578613	237.310349	639.318542
7943.167764	381.286407	237.310349	638.032715
7943.171110	382.279968	237.544128	637.214539
7943.173985	382.396851	237.193451	635.987122
7943.177343	382.455292	237.544128	636.220947
7943.180669	381.929291	237.777908	635.928711
7943.183995	381.637054	238.187012	635.461121
7943.186904	381.987732	237.894791	636.162476
7943.190220	381.461731	237.544128	636.279419
7943.193553	382.279968	238.479248	636.279419
7943.196880	382.279968	238.245483	635.636475
7943.200218	382.279968	237.836349	634.993591
7943.203553	382.630615	237.777908	636.630066
7943.206884	382.163055	238.011688	637.097595
7943.210236	382.513763	237.836349	636.045593
7943.213550	382.805969	238.128586	637.915833
7943.216882	381.812378	238.245483	637.389832
7943.220222	381.987732	238.070145	637.974304
7943.223554	381.637054	238.011688	637.974304
7943.226888	381.286407	238.070145	638.792542
7943.230218	381.052612	237.719452	639.902954
7943.233545	381.637054	237.719452	640.253723
7943.236880	381.637054	237.544128	642.007019
7943.240236	380.818817	237.310349	642.766846
7943.243548	381.111053	237.544128	642.825256
7943.246881	380.818817	237.310349	644.520203
7943.250222	380.701935	236.608994	646.215088
7943.253556	380.000610	236.842789	648.202209
7943.256882	379.299255	236.784332	649.195801
7943.260216	379.708374	236.608994	649.721802
7943.263547	380.292816	235.907669	651.884277
7943.268173	379.357697	235.381638	654.864990
7943.271086	379.182343	235.264771	656.618347
7943.274423	378.831696	234.680313	658.196411
7943.277811	378.539459	235.030975	659.306885
7943.281140	378.481018	234.154282	661.761597
7943.284024	377.545898	233.862076	663.865601
7943.287313	377.428986	233.862076	666.261902
7943.290637	377.078339	233.394516	667.255432
7943.293973	377.136780	233.511383	670.294556
7943.297322	377.487427	233.394516	672.632385
7943.300210	376.143219	233.394516	674.794861
7943.303540	376.143219	232.517822	676.665100
7943.306874	375.383423	232.459396	679.178284
7943.310209	374.915863	232.167160	681.632996
7943.313539	374.097626	231.641144	683.970764
7943.316874	373.863831	231.699600	685.490356
7943.320202	373.337830	231.816467	688.471069
7943.323539	372.344238	231.056702	691.334900
7943.326879	372.227356	231.232040	694.257141
7943.330207	370.707794	230.822906	696.887207
7943.333545	370.590881	230.472244	699.692566
7943.336872	369.129761	229.653992	701.855103
7943.340209	368.194641	229.420227	704.718872
7943.343535	368.019287	229.361786	707.232056
7943.346875	366.090607	228.952667	711.381653
7943.350204	366.558167	228.952667	714.070129
7943.353535	365.739929	228.309769	718.161316
7943.356868	363.928101	228.426666	720.966675
7943.360204	363.402130	227.316177	724.122742
7943.363566	362.233185	226.965515	727.103455
7943.366869	360.713623	225.621277	731.311523
7943.370209	360.362946	224.978363	734.759827
7943.373532	359.018707	224.861496	738.909424
7943.376869	357.557556	224.218597	742.533020
7943.381122	355.453552	222.874344	749.254211
7943.384466	353.875519	221.588547	753.228516
7943.387801	352.297485	221.179428	757.319702
7943.391054	351.479248	219.776733	761.001770
7943.394379	349.901245	218.900055	765.385132
7943.397296	348.206329	218.315613	770.002380
7943.400627	347.154297	217.380493	773.158386
7943.403959	344.816467	216.503799	777.074280
7943.407311	343.647583	215.159546	781.048523
7943.410646	341.777344	214.516647	786.951538
7943.413532	340.023956	213.581528	792.211609
7943.416862	338.445923	212.061951	796.244324
7943.420194	336.809479	211.068375	799.283508
7943.423600	334.880768	210.600815	804.485168
7943.426867	332.542969	208.905899	809.862061
7943.430195	330.672699	207.386322	813.076599
7943.433526	327.984222	206.100525	817.518433
7943.436864	326.523102	205.048508	823.421387
7943.440197	323.483917	204.230270	826.811218
7943.443523	321.204559	202.652252	832.538879
7943.446865	318.925201	201.132675	837.740540
7943.450225	316.295166	200.840439	842.825256
7943.453526	313.782013	199.262421	847.442444
7943.456862	310.625946	198.093506	852.059631
7943.460197	308.755707	196.457047	855.683228
7943.463523	305.599640	194.937469	860.008240
7943.466859	303.028076	193.826996	865.443604
7943.470192	300.047333	191.956741	871.580444
7943.473526	296.832855	190.670959	873.976624
7943.476855	294.144348	189.092926	880.171875
7943.480194	291.163635	187.281128	885.548767
7943.483524	288.241364	185.060196	890.341370
7943.486862	284.442444	183.073059	893.614319
7943.490241	281.111053	181.787247	899.867920
7943.494406	275.032745	177.579193	911.089417
7943.497704	271.350677	175.767395	912.784363
7943.501045	267.785492	174.130920	918.862610
7943.504392	263.402100	171.325546	924.005920
7943.507728	259.953827	169.104614	927.512573
7943.510678	255.921112	166.591461	933.006470
7943.513974	252.063721	164.312103	937.448303
7943.517361	248.264755	162.324951	944.987793
7943.520608	244.407379	159.227356	947.910034
7943.523953	239.673294	156.831085	953.579224
7943.526855	235.523682	154.434845	959.131531
7943.530187	231.315613	152.097031	963.924011
7943.533522	226.932220	148.882523	967.839905
7943.536877	221.555237	146.194046	972.924622
7943.540187	217.347168	143.388672	978.593811
7943.543517	212.554657	140.349518	982.100586
7943.546853	206.943909	138.362366	985.665710
7943.550184	203.028061	134.972534	990.867310
7943.553514	197.534210	131.465805	994.374084
7943.556851	192.858566	128.426651	1000.277039
7943.560180	187.540039	125.387489	1004.192932
7943.563514	181.520172	121.939217	1007.816528
7943.566849	176.727646	118.783165	1011.732361
7943.570180	170.941574	115.744011	1016.524841
7943.573577	165.155472	112.704849	1020.674500
7943.576858	159.836945	109.315018	1024.122681
7943.580193	154.109299	107.035652	1026.226807
7943.583517	147.855652	103.821159	1029.674927
7943.586852	142.420227	99.846870	1035.870239
7943.590183	136.108139	96.690826	1037.214478
7943.593515	130.088257	93.300995	1042.766846
7943.596845	124.126831	90.378723	1044.520142
7943.600183	118.165405	87.105789	1048.026733
7943.603515	111.677963	83.189949	1051.533569
7943.608200	99.404449	76.410294	1058.020996
7943.611048	92.917007	72.845123	1058.196289
7943.614477	86.721802	68.637054	1061.586182
7943.617767	79.883698	65.831673	1065.034424
7943.621080	73.454712	61.682056	1068.950317
7943.623960	66.265930	57.824665	1069.417847
7943.627266	60.246056	53.558155	1071.755615
7943.630609	53.524841	50.051430	1073.625854
7943.633940	46.160728	45.609585	1076.723511
7943.637273	39.790184	41.810638	1076.781982
7943.640176	32.075397	37.193451	1080.931641
7943.643507	25.120399	34.037407	1081.632935
7943.646837	19.451202	29.595558	1082.158936
7943.650174	12.087086	25.153711	1083.619995
7943.653509	4.781418	20.828754	1084.379761
7943.656843	-2.348915	16.912916	1085.256470
7943.660179	-9.713032	11.711280	1087.068359
7943.663512	-15.499119	7.386324	1087.594360
7943.666860	-23.097019	3.412040	1087.652832
7943.670171	-30.519581	-1.029807	1088.120361
7943.673506	-37.182346	-5.471655	1088.529419
7943.676843	-43.903561	-9.738165	1087.360474
7943.680172	-51.092342	-13.829340	1088.587891
7943.683500	-57.988895	-18.621857	1087.711304
7943.686840	-64.359436	-22.596142	1088.587891
7943.690166	-72.074234	-26.979542	1086.600830
7943.693507	-78.386322	-31.070721	1086.250122
7943.696836	-85.399765	-34.869667	1085.841064
7943.700171	-92.705429	-39.253067	1084.321411
7943.703504	-99.660416	-43.168907	1083.094116
7943.706838	-106.030960	-46.909409	1081.808228
7943.710196	-113.044418	-51.292812	1078.769043
7943.713503	-120.174744	-55.267097	1080.580933
7943.716835	-126.779068	-59.299828	1076.723511
7943.721093	-140.338394	-66.897720	1071.288086
7943.724426	-147.351837	-70.521332	1069.710083
7943.727690	-153.371704	-74.495621	1066.612427
7943.731016	-159.917587	-78.411453	1065.443604
7943.734367	-166.112793	-82.210403	1061.878418
7943.737253	-173.009338	-86.418465	1058.137817
7943.740592	-179.555206	-89.691414	1055.741577
7943.743918	-185.458191	-93.139679	1052.877808
7943.747278	-191.770309	-96.821747	1049.546387
7943.750618	-198.140854	-100.445351	1045.221436
7943.753523	-203.576263	-104.419632	1041.890137
7943.756827	-210.239044	-108.627701	1038.500244
7943.760167	-215.791336	-111.783752	1035.285767
7943.763495	-221.577438	-115.465805	1029.674927
7943.766835	-227.246643	-119.323212	1026.401978
7943.770163	-232.740479	-122.596146	1022.603088
7943.773500	-239.520142	-126.745758	1018.804260
7943.776825	-244.546448	-129.668030	1013.485779
7943.780167	-249.981873	-133.817642	1008.284119
7943.783495	-255.241943	-136.856812	1004.309753
7943.786831	-260.911163	-140.538864	999.750977
7943.790160	-265.762115	-143.402695	993.731140
7943.793494	-271.197540	-146.675629	989.347778
7943.796826	-276.165405	-149.714783	983.503235
7943.800159	-281.191681	-152.695496	979.879578
7943.803490	-285.575104	-155.909988	974.502686
7943.806824	-290.601379	-159.066040	968.774963
7943.810162	-295.510803	-161.871414	963.807129
7943.813492	-298.900635	-164.910583	959.014587
7943.816825	-303.576263	-168.066635	953.403870
7943.820160	-308.135010	-170.462891	948.435974
7943.823525	-312.284637	-173.502045	942.416077
7943.826826	-316.668030	-176.190536	935.928711
7943.830152	-320.583862	-178.060776	929.558167
7943.834809	-329.000000	-183.379318	918.044495
7943.837680	-332.915833	-185.717133	912.258362
7943.841051	-337.357666	-187.704269	907.056702
7943.844357	-339.695496	-190.100540	900.686157
7943.847743	-344.020447	-192.613678	894.841675
7943.850604	-347.760956	-194.542374	889.639954
7943.853951	-350.215668	-195.828156	883.503235
7943.857251	-353.839264	-197.756866	877.483398
7943.860580	-357.112213	-200.270020	870.002380
7943.863909	-360.326721	-201.906479	865.852722
7943.866820	-364.184113	-203.367630	859.423767
7943.870151	-365.177673	-205.646973	853.988342
7943.873487	-368.801300	-206.932800	849.429626
7943.876817	-371.489746	-207.867920	841.656433
7943.880158	-374.762726	-209.971939	835.519592
7943.883496	-376.983643	-211.783752	830.317993
7943.886820	-380.022797	-212.952652	822.427856
7943.890155	-381.717712	-214.998260	818.395142
7943.893478	-384.347748	-216.576279	812.316833
7943.896817	-385.691956	-217.628296	807.875000
7943.900150	-388.555786	-218.680298	800.101685
7943.903484	-390.133850	-220.725876	794.374084
7943.906825	-392.354767	-221.836365	787.126831
7943.910146	-394.225006	-222.362366	781.866760
7943.913479	-395.393921	-223.180588	777.191101
7943.916815	-397.556396	-225.284637	770.820557
7943.920144	-398.608398	-226.219757	765.151428
7943.923479	-401.296875	-227.563995	758.956177
7943.926842	-402.699615	-228.148453	752.702515
7943.930152	-403.459381	-229.142029	748.552917
7943.933481	-404.862061	-230.018692	742.649963
7943.936817	-405.855652	-230.953827	737.448242
7943.940144	-407.550568	-232.414978	730.610168
7943.943479	-408.544098	-233.350098	725.466980
7943.947684	-411.115723	-234.811218	714.829956
7943.951067	-412.459991	-235.337219	710.037415
7943.954403	-412.576843	-236.389236	704.601990
7943.957741	-414.797760	-236.389236	699.634155
7943.960982	-415.265350	-237.324371	695.016968
7943.963903	-415.499115	-237.908829	688.938660
7943.967236	-416.258911	-238.376389	683.094116
7943.970600	-417.603149	-239.486847	679.178284
7943.973901	-418.772064	-239.253082	674.035095
7943.977236	-418.830475	-239.136185	669.242554
7943.980137	-419.181183	-239.720642	665.092957
7943.983477	-419.999390	-239.720642	660.475769
7943.986805	-420.525391	-240.363541	654.981934
7943.990140	-421.577454	-240.363541	650.540100
7943.993470	-421.635895	-240.421967	646.565796
7943.996811	-421.694305	-241.357101	641.714844
7944.000202	-423.213898	-241.181763	637.039185
7944.003480	-422.980103	-241.473999	632.597290
7944.006806	-423.856812	-241.590897	627.454163
7944.010145	-423.506165	-241.532425	624.181213
7944.013489	-423.856812	-241.064865	620.382263
7944.016807	-425.084137	-242.175323	615.589722
7944.020135	-424.558167	-242.175323	611.498535
7944.023474	-424.616608	-241.824661	607.991821
7944.026800	-424.558167	-241.883102	604.368225
7944.030128	-423.915222	-242.876678	598.757446
7944.033474	-424.032166	-243.344238	595.893616
7944.036801	-425.084137	-242.526016	592.854492
7944.040132	-424.558167	-242.467560	589.055542
7944.043481	-425.376404	-243.227356	584.847473
7944.046801	-425.259491	-242.818253	581.632996
7944.050138	-425.201019	-242.935120	577.191101
7944.053465	-425.376404	-243.344238	575.145569
7944.056805	-423.856812	-243.168915	570.995911
7944.061074	-424.382812	-243.227356	564.800720
7944.064349	-424.265900	-243.110458	562.404480
7944.067653	-425.025696	-243.636475	559.131531
7944.070977	-424.149017	-243.227356	555.157227
7944.074368	-424.032166	-243.578003	552.351868
7944.077224	-424.207489	-242.818253	549.663391
7944.080564	-423.155426	-243.168915	546.682678
7944.083907	-423.915222	-243.519577	543.818787
7944.087260	-423.798370	-243.344238	541.247253
7944.090125	-423.213898	-243.227356	540.195251
7944.093463	-423.213898	-242.935120	536.279419
7944.096807	-423.389221	-243.285812	533.824707
7944.100133	-423.506165	-242.642883	531.837524
7944.103462	-423.973694	-242.759781	529.149048
7944.106804	-423.038574	-242.701355	527.804810
7944.110133	-422.921692	-242.409119	524.590332
7944.113457	-422.687897	-242.233795	522.135620
7944.116788	-422.512573	-242.467560	520.557617
7944.120124	-422.161896	-242.116898	518.921082
7944.123459	-422.629456	-241.824661	516.817078
7944.126798	-423.038574	-242.818253	514.654602
7944.130139	-423.155426	-241.590897	512.725891
7944.133458	-422.044983	-242.292221	511.206329
7944.136797	-421.343658	-242.350677	511.030975
7944.140127	-422.454102	-241.473999	508.284027
7944.143462	-422.103455	-241.298660	507.407379
7944.146790	-421.518982	-241.707764	506.004669
7944.150122	-422.103455	-241.590897	503.549957
7944.153454	-421.928101	-241.824661	502.439484
7944.156790	-421.402100	-241.064865	501.971954
7944.160146	-421.402100	-240.597305	500.803009
7944.163459	-421.402100	-241.123322	499.400360
7944.166794	-422.395660	-240.772644	498.289886
7944.170120	-420.700775	-240.655762	497.822296
7944.174320	-419.940979	-240.772644	495.659851
7944.177630	-421.168304	-240.071304	495.367584
7944.180990	-419.765594	-240.538864	494.374023
7944.184336	-420.759186	-240.714203	493.614258
7944.187708	-420.583862	-241.006439	493.964935
7944.190568	-420.057861	-241.181763	492.328430
7944.193897	-419.298065	-240.305084	492.679138
7944.197231	-420.057861	-240.421967	491.744019
7944.200544	-420.116333	-240.831100	491.627106
7944.203485	-420.057861	-240.947968	491.393311
7944.206781	-420.174744	-241.123322	491.685547
7944.210117	-419.414948	-241.006439	490.691986
7944.213450	-419.882538	-241.123322	490.750427
7944.216791	-419.064270	-241.064865	490.516632
7944.220123	-419.707184	-240.889542	490.458191
7944.223448	-419.298065	-241.064865	490.341309
7944.226781	-419.473389	-240.714203	490.691986
7944.230122	-419.765594	-240.831100	491.510223
7944.233449	-418.947388	-241.415527	490.691986
7944.236783	-419.707184	-240.714203	491.510223
7944.240115	-419.005859	-240.772644	491.627106
7944.243451	-419.414948	-240.831100	492.386902
7944.246789	-419.882538	-241.064865	492.386902
7944.250114	-419.531860	-240.889542	492.503754
7944.253500	-419.940979	-240.597305	492.971344
7944.256779	-420.408508	-240.246643	495.075409
7944.260119	-420.700775	-240.889542	496.302734
7944.263449	-420.583862	-240.363541	496.127380
7944.266782	-419.356537	-240.538864	498.114532
7944.270114	-420.583862	-240.538864	498.757416
7944.273443	-421.226776	-240.947968	501.095245
7944.276778	-421.518982	-240.421967	500.978363
7944.280112	-421.986572	-240.655762	502.965546
7944.284353	-421.518982	-240.071304	504.601959
7944.287655	-422.278778	-240.538864	506.530670
7944.291059	-421.869659	-240.597305	507.699554
7944.294388	-421.928101	-240.246643	509.803619
7944.297708	-421.635895	-239.837509	511.673859
7944.300537	-421.869659	-240.597305	512.433655
