time (s)	magX	magY	magZ
8439.255299	224.935715	-105.846870	-134.089996
8439.258685	223.240799	-105.203972	-132.102859
8439.262056	221.487442	-104.794853	-130.232605
8439.265379	220.260086	-104.444183	-128.420807
8439.268665	218.798935	-103.976616	-126.316780
8439.272034	217.220917	-103.684395	-123.803635
8439.275381	216.227356	-103.275276	-123.277618
8439.278715	214.883102	-102.690819	-121.465805
8439.282070	214.006439	-102.632378	-120.238464
8439.285356	212.311523	-102.457039	-117.959084
8439.288661	211.551727	-101.521912	-117.725304
8439.291975	210.499710	-101.054352	-115.913506
8439.295351	208.863235	-101.171242	-114.510811
8439.298684	207.869659	-100.645233	-112.932793
8439.302033	207.051437	-100.177673	-111.646988
8439.305383	205.999405	-99.651665	-110.594978
8439.308663	204.772064	-99.534775	-109.367622
8439.311980	204.012268	-98.891869	-107.146698
8439.315353	202.609589	-98.716537	-105.977791
8439.318675	201.908249	-98.774979	-105.159561
8439.322036	200.563995	-97.372292	-103.406197
8439.325396	200.037994	-96.787842	-102.061958
8439.328721	198.576859	-96.612503	-101.009941
8439.332036	198.109299	-96.378723	-99.665695
8439.335391	197.758621	-95.443596	-98.964348
8439.338678	196.706604	-95.268257	-97.386330
8439.342016	195.713028	-94.800697	-96.626534
8439.345363	195.771484	-94.274689	-95.340736
8439.348693	194.777908	-93.807129	-94.522507
8439.352042	193.316772	-93.807129	-93.353600
8439.355385	192.790771	-93.164230	-92.360023
8439.358704	192.498535	-93.047340	-92.067802
8439.362033	192.264755	-92.462883	-90.255989
8439.365381	191.329636	-92.813553	-89.963768
8439.368668	190.862076	-91.995323	-89.379311
8439.371992	190.102280	-92.112213	-88.911751
8439.375383	189.284042	-92.229103	-88.736412
8439.378676	189.926941	-92.287552	-87.976624
8439.382005	189.576263	-92.287552	-88.444191
8439.385339	189.050262	-92.345993	-87.275284
8439.388636	188.699585	-92.229103	-87.392174
8439.392010	188.758041	-91.995323	-86.807716
8439.395363	188.933380	-92.872002	-87.509064
8439.398680	188.290482	-92.755112	-87.216835
8439.402014	188.816483	-92.404442	-87.509064
8439.405319	188.290482	-92.521332	-87.684395
8439.408598	188.056702	-93.339569	-88.327301
8439.411960	188.582703	-93.631790	-88.385742
8439.415350	188.173584	-93.690239	-88.853302
8439.418727	188.232025	-94.099350	-89.145531
8439.422037	188.290482	-93.514900	-89.788429
8439.425343	188.348907	-94.274689	-89.905319
8439.428656	189.167160	-94.333138	-90.372879
8439.431977	188.933380	-94.566917	-90.548218
8439.435381	189.108704	-95.034477	-91.249565
8439.438657	189.108704	-95.151367	-91.658676
8439.442007	189.926941	-95.326706	-91.191116
8439.445343	190.452942	-95.502045	-90.957336
8439.449109	190.628296	-95.735825	-91.775574
8439.452375	190.803619	-95.443596	-92.009354
8439.455659	190.978958	-95.618935	-92.418472
8439.459036	191.738754	-95.852715	-92.009354
8439.462344	192.089417	-96.495613	-93.002922
8439.465642	191.855637	-96.378723	-92.360023
8439.468908	192.381638	-96.437164	-93.528931
8439.472269	192.907654	-96.846291	-93.587379
8439.475540	193.199890	-97.255402	-94.697838
8439.478831	194.018112	-97.255402	-94.756287
8439.482182	194.485672	-97.430740	-95.516075
8439.485503	194.368790	-97.606071	-95.691414
8439.488818	195.362366	-97.898300	-96.392754
8439.492168	195.946808	-98.307419	-97.853889
8439.495465	196.765060	-98.833427	-98.263008
8439.498758	197.817062	-99.125648	-98.964348
8439.502064	197.875519	-99.476326	-99.548805
8439.505380	198.810638	-100.119225	-100.367035
8439.508734	199.921097	-100.820572	-101.828171
8439.512532	200.797775	-100.820572	-102.763298
8439.515811	201.382233	-101.288132	-105.159561
8439.519107	202.200470	-101.814140	-106.679131
8439.522464	203.544708	-102.515488	-108.374054
8439.525755	204.713623	-103.742836	-109.484512
8439.529168	205.824081	-104.385735	-111.530106
8439.532489	206.700760	-104.853302	-113.517242
8439.535795	207.752777	-105.203972	-115.621269
8439.539105	209.097015	-106.139099	-117.549973
8439.542409	210.382812	-106.957329	-119.420219
8439.545802	211.493286	-108.418465	-120.881355
8439.549150	213.480408	-109.178261	-123.102272
8439.552479	214.357101	-109.996490	-125.147873
8439.555867	215.759796	-110.873169	-128.303909
8439.559168	216.870255	-112.217415	-130.758621
8439.562488	218.389832	-112.918762	-132.804199
8439.565846	219.850952	-113.503212	-135.083572
8439.569232	221.312103	-114.789017	-138.181168
8439.572566	222.597900	-115.373459	-139.876083
8439.575828	223.708359	-116.483917	-143.032135
8439.579151	226.104599	-116.893044	-145.369949
8439.582525	227.331955	-117.945053	-148.292221
8439.585814	228.617783	-118.763298	-150.922256
8439.589137	230.254227	-119.756866	-153.493851
8439.592482	231.773819	-120.516647	-156.182343
8439.595788	233.527176	-121.744003	-158.637039
8439.599130	235.280533	-122.620682	-161.091751
8439.602465	236.917007	-123.146690	-163.955582
8439.605837	238.728821	-124.140266	-168.222092
8439.609116	239.897720	-124.783165	-171.027466
8439.612457	242.060196	-125.718285	-173.774399
8439.615825	243.287552	-127.237869	-176.988892
8439.619160	244.573349	-127.822319	-180.554047
8439.622470	246.852722	-129.108124	-183.417877
8439.625765	248.196976	-130.218582	-187.684387
8439.629108	250.242554	-131.270615	-191.541794
8439.632507	252.054352	-132.497955	-195.749847
8439.635772	253.457031	-133.257736	-200.016357
8439.639110	256.028625	-134.192871	-204.165985
8439.642445	257.840454	-134.952667	-208.607834
8439.645740	260.061371	-136.296906	-213.049667
8439.649106	262.165405	-137.641159	-217.725296
8439.652423	263.860291	-138.751617	-223.686737
8439.655755	266.373444	-139.745193	-229.005264
8439.659077	268.243713	-141.323212	-234.265350
8439.662408	269.880188	-142.550568	-240.811218
8439.665749	272.276428	-143.836349	-245.603729
8439.669072	274.146698	-145.239044	-252.383392
8439.672368	276.309174	-146.232620	-258.870850
8439.675705	277.770325	-148.161316	-265.182922
8439.678994	280.225006	-149.447113	-272.196350
8439.682360	281.510834	-150.849792	-279.151367
8439.685683	283.381073	-152.369385	-286.106354
8439.688983	285.601990	-153.479843	-293.470490
8439.692310	287.355347	-155.057877	-301.126801
8439.696083	289.225586	-155.992996	-308.783173
8439.699015	291.212738	-157.278793	-316.439514
8439.702305	292.440094	-158.973709	-324.271179
8439.706090	293.492126	-159.791931	-332.278198
8439.709373	295.420807	-160.960846	-340.518982
8439.712728	296.414398	-162.772659	-349.227356
8439.716085	298.518402	-163.649338	-356.942139
8439.719419	299.395111	-164.584457	-365.416718
8439.722719	300.973114	-165.636475	-374.183502
8439.726064	302.901794	-166.513153	-383.242523
8439.729367	303.778503	-166.922272	-392.067780
8439.732785	305.298065	-168.324966	-402.003510
8439.736090	305.473419	-168.617187	-410.302734
8439.739405	306.174744	-169.318527	-419.361786
8439.742712	307.402100	-170.428986	-428.713043
8439.746015	307.635895	-170.487442	-438.122742
8439.749423	308.863251	-171.247238	-447.064880
8439.752781	309.330811	-171.130341	-456.474579
8439.756087	309.447693	-171.597900	-467.345428
8439.759485	309.798370	-172.007019	-477.573334
8439.762776	309.739899	-171.773224	-489.145508
8439.766113	310.324371	-172.065460	-499.782562
8439.769485	309.564575	-172.123917	-510.536530
8439.772380	309.038574	-172.240799	-522.050293
8439.776146	308.804779	-172.474594	-533.447144
8439.779071	307.577423	-172.416138	-545.136169
8439.782822	305.824066	-172.065460	-557.234436
8439.785760	304.421387	-171.247238	-569.449463
8439.789510	302.784943	-170.779663	-581.138550
8439.792783	301.031555	-170.779663	-593.879639
8439.796146	298.985962	-169.552307	-606.036255
8439.799446	296.355927	-168.675644	-618.251343
8439.802833	293.199890	-168.091171	-630.992432
8439.806135	290.277618	-166.863815	-642.973755
8439.809476	286.946228	-166.279373	-656.299255
8439.812744	282.621277	-164.818237	-668.981934
8439.816077	278.588531	-163.590881	-681.021667
8439.819453	273.562256	-161.895966	-693.704285
8439.822773	269.354187	-160.317947	-705.393372
8439.826067	264.152527	-158.330811	-718.894226
8439.829393	258.658691	-156.402115	-730.232666
8439.832720	252.814133	-154.239624	-741.921692
8439.836109	246.385162	-151.434250	-753.377014
8439.839448	240.365280	-149.388672	-764.481628
8439.842773	233.644073	-146.700180	-775.352478
8439.846101	226.922852	-143.661026	-786.047974
8439.849418	219.500290	-141.206314	-796.392822
8439.852746	211.668625	-137.348923	-805.802490
8439.856061	204.304504	-134.660431	-815.679749
8439.859390	196.998840	-131.153717	-825.089478
8439.862706	188.582703	-126.594963	-833.622498
8439.866020	180.166565	-123.263588	-841.687927
8439.869371	171.575104	-118.997078	-849.987122
8439.872673	162.457626	-114.905899	-857.175964
8439.876009	154.333725	-110.464050	-864.773865
8439.879310	144.982468	-105.671532	-870.735291
8439.882649	135.572769	-101.171242	-877.398010
8439.885994	125.695503	-96.144943	-883.242554
8439.889307	116.461136	-90.592636	-888.093506
8439.892605	107.402107	-85.858559	-893.061401
8439.895923	97.115723	-80.247803	-897.561646
8439.899216	86.069550	-75.163055	-900.133240
8439.902666	75.081825	-69.143188	-903.756958
8439.905981	64.736992	-63.181767	-907.380493
8439.909296	54.333725	-57.395676	-909.250793
8439.912633	43.053772	-51.083580	-910.770325
8439.915986	31.773817	-44.946815	-911.296326
8439.919268	20.669199	-38.926941	-911.471680
8439.922601	8.571011	-32.264172	-911.179504
8439.926330	-3.644068	-26.127411	-911.004089
8439.929657	-15.450029	-19.347750	-909.893616
8439.932979	-27.255989	-13.035652	-907.438965
8439.936347	-39.003506	-5.846873	-905.627197
8439.939717	-51.277031	0.348334	-902.997131
8439.943005	-62.907661	7.127996	-898.730591
8439.946304	-74.830505	13.030976	-894.405701
8439.949594	-86.694916	19.109291	-889.262390
8439.952951	-99.202225	24.661602	-884.002319
8439.956297	-110.423729	31.090588	-877.456482
8439.959667	-122.054352	36.993568	-871.495056
8439.962954	-132.749847	42.370544	-864.072571
8439.966280	-143.153137	48.215076	-856.883728
8439.969657	-154.549973	54.468731	-848.876709
8439.972974	-164.719467	60.137928	-841.161926
8439.976292	-174.246063	64.696671	-831.810669
8439.979573	-183.538864	70.365875	-822.868591
8439.982905	-193.240799	75.099945	-814.452393
8439.986299	-202.358276	80.827591	-803.990662
8439.989613	-210.306854	85.269432	-795.165405
8439.992924	-218.021622	89.594391	-785.463501
8439.996258	-225.911743	93.860909	-774.884888
8439.999543	-231.639404	98.887199	-764.481628
8440.003008	-240.113968	102.744598	-754.779724
8440.006305	-245.841614	107.069550	-743.850403
8440.009644	-251.452362	111.394508	-733.505554
8440.013003	-257.764465	115.661018	-722.693176
8440.016325	-263.141418	119.167740	-712.465271
8440.019604	-268.459961	122.908241	-702.061951
8440.022989	-273.661591	126.005852	-691.366455
8440.026270	-278.278778	130.330795	-680.846313
8440.029640	-282.486847	133.311508	-669.274109
8440.032939	-286.227356	136.818237	-658.344849
8440.036230	-290.727661	139.798935	-647.123352
8440.039581	-293.883698	142.312103	-635.551147
8440.042865	-297.156647	144.942123	-624.388123
8440.046276	-300.254242	147.805954	-612.757446
8440.049596	-303.059601	150.435989	-601.419067
8440.052919	-306.040314	152.949142	-590.022278
8440.056225	-308.378143	154.877838	-578.508484
8440.059535	-310.657501	156.572754	-566.468750
8440.062855	-312.177094	158.443008	-555.364136
8440.066225	-314.281128	160.313263	-544.025757
8440.069542	-316.326691	161.715942	-532.921082
8440.072803	-317.612518	163.293976	-520.822937
8440.076544	-318.489166	164.287537	-510.594971
8440.079833	-319.541199	165.047333	-498.496765
8440.083195	-320.826996	165.514893	-488.151978
8440.086517	-321.177673	166.333145	-476.462891
8440.089818	-321.937439	166.976028	-466.293365
8440.093163	-321.937439	167.326706	-455.071869
8440.096461	-322.171234	167.385147	-444.960815
8440.099789	-322.054352	167.385147	-435.492706
8440.103081	-322.054352	167.560486	-424.563416
8440.106432	-321.995911	167.443604	-414.218567
8440.109778	-320.943878	166.742249	-405.334900
8440.113079	-320.476318	166.742249	-396.392761
8440.116366	-320.008759	166.800705	-387.450623
8440.119664	-319.307434	166.157791	-378.742249
8440.122981	-318.196960	165.456451	-370.384583
8440.126282	-316.677399	165.222672	-361.325531
8440.129624	-316.151367	164.638214	-353.143188
8440.132975	-314.748688	164.170654	-345.895966
8440.136296	-312.995331	162.884857	-338.590271
8440.139596	-311.066650	162.943298	-331.693756
8440.142919	-309.547058	162.183517	-324.446503
8440.146210	-307.676788	161.949722	-317.725311
8440.149639	-305.689667	161.189941	-310.594971
8440.152912	-304.754517	161.073059	-304.458221
8440.156663	-302.767395	160.547043	-297.327881
8440.159969	-300.604889	159.085907	-291.541779
8440.163295	-298.208649	158.910568	-285.755707
8440.166623	-296.689056	158.326126	-279.618927
8440.169913	-294.292816	158.033890	-273.949738
8440.173279	-292.714813	157.916992	-267.754517
8440.176573	-290.318512	156.631210	-261.851532
8440.179889	-288.740509	156.046753	-257.468170
8440.183180	-286.519592	155.170074	-251.506714
8440.186529	-285.116913	154.293396	-245.545288
8440.189788	-282.954407	153.825836	-240.752762
8440.193090	-280.207489	152.949142	-236.427811
8440.196443	-278.337219	152.014023	-231.635300
8440.199758	-275.999420	150.903564	-225.498535
8440.203081	-274.596741	149.968430	-221.232025
8440.206359	-272.025146	149.500870	-215.504379
8440.209703	-269.921112	148.215073	-210.887192
8440.212984	-267.524841	147.396835	-206.270020
8440.216291	-265.713043	145.994156	-202.354172
8440.219636	-263.842773	145.409698	-198.029221
8440.223383	-261.680298	144.474564	-192.944473
8440.226335	-259.634735	142.604309	-189.262405
8440.230105	-257.121582	141.669189	-186.106369
8440.232973	-255.601990	140.792511	-181.196960
8440.236336	-253.965515	139.915833	-177.047333
8440.240084	-251.744598	138.162476	-173.482162
8440.243420	-249.874329	137.227341	-169.157211
8440.246760	-248.062531	136.701340	-166.059616
8440.250085	-246.192291	135.357101	-162.319107
8440.253048	-244.672714	133.895950	-160.215073
8440.256770	-243.211563	133.428391	-156.766785
8440.260054	-241.341309	132.317932	-153.610748
8440.263464	-239.354172	131.499710	-151.331390
8440.266841	-237.893051	130.389236	-149.461121
8440.270584	-236.490356	129.687897	-146.363525
8440.273898	-234.210983	129.278778	-144.551712
8440.277234	-232.925186	127.934547	-142.447678
8440.280559	-231.522507	127.525414	-139.350082
8440.283894	-229.827576	127.116310	-138.064285
8440.287223	-229.360016	126.239632	-136.427811
8440.290583	-227.840439	125.888954	-134.031555
8440.293900	-226.145538	125.187614	-132.044403
8440.297233	-224.918182	124.077156	-130.583282
8440.300598	-223.632370	123.843361	-128.713028
8440.303893	-222.989471	123.492699	-127.310349
8440.307229	-221.645248	123.025139	-124.738754
8440.310561	-219.950333	122.791359	-123.394508
8440.313904	-218.547638	122.265343	-121.407372
8440.317226	-217.612518	122.031563	-120.472244
8440.320552	-216.852722	121.213326	-118.777328
8440.323888	-215.040909	120.804207	-117.491524
8440.327224	-214.105789	120.921104	-115.971947
8440.330551	-213.287552	119.927528	-115.153709
8440.333891	-212.001770	119.343071	-113.341911
8440.337226	-210.774414	119.167740	-112.056107
8440.340555	-210.189957	118.817078	-110.361198
8440.343901	-208.728821	118.232613	-109.192291
8440.347221	-207.793671	117.472824	-107.672707
8440.350551	-206.975449	117.005257	-106.445351
8440.353906	-205.631226	117.180595	-104.984222
8440.357221	-204.696091	116.654594	-104.516663
8440.360556	-203.877838	115.719467	-102.471069
8440.363888	-203.001175	115.953247	-101.535942
8440.367220	-202.182922	115.836357	-100.542374
8440.370553	-201.715363	114.725899	-99.548805
8440.373925	-200.721802	114.375221	-97.620110
8440.377216	-199.552902	113.966103	-97.503220
8440.380554	-199.552902	113.264763	-96.158974
8440.383884	-199.026886	113.147873	-95.165398
8440.387227	-198.559326	112.855644	-94.931618
8440.390556	-198.091751	112.329636	-93.762711
8440.393881	-196.689072	112.329636	-93.061371
8440.397217	-197.507294	111.862068	-93.762711
8440.400546	-196.630630	110.926949	-92.769142
8440.403876	-196.572174	111.160728	-92.301582
8440.407223	-196.163071	111.160728	-91.424896
8440.410547	-195.461716	110.810059	-91.132675
8440.413882	-195.227951	110.225601	-90.957336
8440.417239	-195.987732	110.225601	-91.600235
8440.420551	-195.520172	110.576279	-91.191116
8440.423883	-194.994156	110.926949	-90.840446
8440.427220	-194.877258	110.342499	-90.957336
8440.430549	-194.760376	110.576279	-91.834015
8440.433883	-194.818817	111.160728	-92.126244
8440.437216	-195.520172	111.336060	-91.717125
8440.440549	-195.052612	111.511406	-91.834015
8440.443876	-194.643478	112.037407	-91.424896
8440.447211	-194.760376	111.803619	-91.717125
8440.450546	-194.935715	112.329636	-91.717125
8440.453906	-194.994156	112.388084	-91.834015
8440.457211	-195.111053	112.563416	-93.353600
8440.460548	-195.111053	112.388084	-93.295151
8440.463872	-195.227951	113.498543	-93.645821
8440.467209	-195.695511	113.673874	-94.054939
8440.470544	-195.637054	113.849220	-93.412041
8440.473874	-196.338409	114.199883	-94.230278
8440.477208	-195.695511	114.083000	-93.938049
8440.480547	-196.104614	114.199883	-94.639397
8440.483875	-196.747498	114.258331	-95.165398
8440.487208	-196.747498	114.550560	-95.282288
8440.490542	-197.507294	115.251907	-96.042084
8440.493878	-197.156631	115.427238	-95.691414
8440.497242	-198.383987	114.959679	-96.509644
8440.500539	-198.851547	115.894798	-97.444771
8440.503876	-198.851547	116.596146	-97.503220
8440.507203	-199.202209	116.187035	-97.970779
8440.510538	-200.020462	116.420815	-98.321457
8440.513873	-200.312668	116.654594	-99.315018
8440.517204	-200.429565	117.063705	-100.074814
8440.520542	-201.189362	117.648155	-100.600822
8440.523873	-202.416718	118.174164	-101.711281
8440.527205	-202.592056	118.466400	-102.763298
8440.530540	-203.410278	118.524849	-102.997078
8440.533875	-204.170074	119.167740	-104.458214
8440.537205	-205.222092	119.518425	-105.276443
8440.540573	-206.215652	119.810631	-107.029808
8440.543870	-206.741684	120.511986	-107.555824
8440.547200	-208.085907	121.447105	-109.542961
8440.550538	-209.254822	121.797783	-111.588539
8440.553870	-210.073059	122.557579	-112.757446
8440.557204	-210.949738	123.200478	-114.569260
8440.560534	-211.826401	124.135597	-116.556396
8440.563870	-213.112228	124.603157	-117.900650
8440.567197	-214.339584	125.713615	-119.537117
8440.570540	-216.092926	126.005852	-120.413795
8440.573870	-216.852722	127.408531	-123.043839
8440.577197	-218.606079	128.051422	-125.381653
8440.580527	-219.365875	129.161896	-127.953247
8440.583881	-220.710129	130.856796	-129.881943
8440.587203	-222.463470	131.616592	-131.869080
8440.590530	-223.223267	132.493271	-133.797775
8440.593861	-223.749268	133.311508	-136.194031
8440.597194	-225.619522	134.538864	-139.233185
8440.600527	-226.905304	135.123306	-140.752762
8440.603927	-228.834015	136.292221	-142.973694
8440.607203	-229.476913	136.993561	-145.428406
8440.610531	-230.236710	137.987137	-148.876678
8440.613897	-231.931625	139.389832	-150.630035
8440.617197	-233.626541	140.500290	-153.493851
8440.620528	-234.795441	141.727646	-156.357681
8440.623858	-236.081238	142.487427	-158.695496
8440.627204	-237.367050	143.597885	-160.624191
8440.630527	-239.003510	144.299240	-164.072464
8440.633863	-240.639984	145.351257	-167.520752
8440.637196	-242.451782	146.403259	-170.559906
8440.640529	-243.737595	147.279953	-173.306824
8440.643863	-245.023376	147.922852	-176.696671
8440.647190	-247.010529	148.857971	-179.677368
8440.650528	-248.763885	150.143768	-182.774979
8440.653863	-250.692566	151.780243	-186.398590
8440.657206	-252.329041	152.773804	-189.203979
8440.660524	-254.433075	153.066040	-193.762711
8440.663853	-256.011108	154.001160	-197.444763
8440.667193	-257.998230	155.111618	-201.652832
8440.670555	-260.394501	156.397430	-205.685562
8440.673862	-261.972534	157.624786	-210.010529
8440.677188	-263.550568	158.209229	-214.978378
8440.680523	-265.888367	159.787247	-218.952652
8440.683852	-267.524841	161.306839	-224.621857
