time (s)	magX	magY	magZ
7431.460254	-369.687317	194.912918	-256.065460
7431.463559	-375.590302	197.718292	-267.111633
7431.466906	-380.441284	200.056107	-279.268250
7431.470229	-386.928680	203.679703	-292.009338
7431.473561	-392.773224	205.959076	-304.984222
7431.476886	-398.208618	209.115128	-318.309753
7431.480215	-404.111633	211.978958	-331.518402
7431.483595	-409.897736	214.667435	-346.714203
7431.486920	-415.976044	217.589706	-361.500885
7431.490213	-421.177673	220.628860	-377.339539
7431.493539	-426.379303	223.025131	-393.470490
7431.497315	-431.230255	225.187607	-410.185852
7431.500257	-436.548828	227.466965	-428.537689
7431.503540	-441.458191	229.454117	-446.363556
7431.507290	-446.133850	231.090591	-465.182922
7431.510627	-450.283447	232.259491	-484.236084
7431.513940	-454.257751	234.188202	-504.808899
7431.517293	-457.530701	234.363525	-525.031006
7431.520618	-460.628296	234.831100	-545.545349
7431.523935	-463.725922	235.123322	-567.754517
7431.527247	-466.355957	235.123322	-589.145569
7431.530582	-468.518402	234.188202	-611.997681
7431.533958	-471.148468	233.545273	-634.206970
7431.537333	-471.908234	231.675034	-657.643494
7431.540642	-472.609589	230.623032	-680.495605
7431.543949	-472.434235	228.460556	-704.399780
7431.547242	-471.382233	225.772049	-728.011719
7431.550629	-470.505524	222.440674	-752.383423
7431.553952	-468.810608	218.466400	-777.573364
7431.557269	-465.245453	215.134995	-803.464661
7431.560618	-462.089417	210.108704	-828.362366
7431.563900	-457.413788	204.556396	-853.493896
7431.567267	-451.978363	198.887207	-879.618958
7431.570563	-447.185852	192.867325	-904.516724
7431.573914	-439.997070	186.263000	-930.174194
7431.577191	-430.996490	179.717117	-955.773254
7431.580567	-422.814148	171.651657	-980.729431
7431.583916	-413.053772	163.586197	-1006.211609
7431.587221	-402.884247	155.520752	-1032.161255
7431.590540	-389.558746	146.987717	-1056.708252
7431.593913	-377.460541	138.162476	-1080.904785
7431.597222	-362.498535	128.460556	-1107.029785
7431.600632	-347.478088	118.700180	-1128.888306
7431.603968	-332.574524	108.355354	-1151.097534
7431.607315	-314.924011	98.185860	-1173.540527
7431.610624	-296.689056	87.256577	-1193.821167
7431.613946	-276.817657	75.918182	-1213.283447
7431.617228	-256.829346	64.755119	-1231.985962
7431.620569	-236.957916	52.773815	-1249.344238
7431.623859	-216.034470	40.558735	-1265.299805
7431.627206	-193.474564	28.752773	-1280.378662
7431.630521	-170.856232	16.245472	-1293.645874
7431.633836	-147.127411	3.913501	-1305.685547
7431.637144	-124.099945	-9.295149	-1315.036743
7431.640902	-99.552895	-22.737579	-1324.972534
7431.643815	-74.947395	-35.478668	-1331.635254
7431.647577	-50.692577	-48.453537	-1336.720093
7431.650509	-25.853302	-60.727062	-1340.928101
7431.654264	-2.182935	-73.234367	-1342.272339
7431.657609	23.299240	-86.384567	-1342.973633
7431.660930	47.437172	-98.307419	-1341.044922
7431.664266	71.165985	-110.405602	-1337.012207
7431.667603	94.427231	-122.796028	-1331.810669
7431.670926	116.519585	-134.485092	-1325.498535
7431.674250	138.845703	-145.706604	-1316.848633
7431.677589	160.236710	-155.876099	-1306.153076
7431.680978	181.335480	-166.630035	-1294.580933
7431.684310	202.083572	-176.448868	-1282.891846
7431.687594	220.727646	-186.384567	-1267.871338
7431.690899	239.839279	-195.794266	-1251.214478
7431.694282	257.139099	-204.093521	-1235.784912
7431.697584	274.088257	-212.217422	-1216.380981
7431.700965	290.511414	-219.873764	-1198.262939
7431.704244	305.648743	-226.594971	-1177.573242
7431.707563	320.552307	-233.140854	-1155.831665
7431.710952	334.696075	-238.517838	-1135.434204
7431.714234	348.547638	-243.894791	-1112.991211
7431.717578	359.886047	-248.278214	-1090.314331
7431.720858	371.692017	-252.252487	-1066.351807
7431.724192	382.504395	-255.700760	-1042.739990
7431.727568	392.147858	-258.272339	-1017.842224
7431.730892	402.025146	-261.369965	-992.418518
7431.734204	410.499695	-262.831085	-967.579224
7431.737513	416.811798	-264.584473	-942.097046
7431.740812	424.117462	-265.870239	-916.381104
7431.744258	430.604919	-266.337799	-892.067810
7431.747565	436.741669	-266.805359	-866.410278
7431.750859	440.657501	-267.039154	-841.278748
7431.754147	443.813538	-266.513153	-816.673279
7431.757462	447.554047	-266.162476	-791.658691
7431.760847	450.768555	-265.461121	-767.696106
7431.764183	453.164795	-265.168884	-743.382874
7431.767464	453.924591	-263.707764	-721.290527
7431.770772	454.742859	-261.603729	-697.210999
7431.774095	455.151978	-260.201050	-675.118652
7431.777480	454.976654	-259.265930	-652.266541
7431.780797	454.742859	-257.161896	-630.466431
7431.784116	453.106384	-254.999420	-609.075439
7431.787463	451.294556	-253.596741	-588.035095
7431.790789	449.365875	-251.375824	-568.631226
7431.794103	446.794250	-249.388672	-549.285828
7431.797423	444.222687	-248.161316	-531.109314
7431.801249	441.125092	-246.115738	-511.296326
7431.804748	437.676788	-243.661026	-493.528931
7431.808089	434.345428	-241.673874	-474.943298
7431.811421	430.546478	-239.628296	-458.169495
7431.814761	426.747498	-236.881348	-442.389252
7431.818088	422.422546	-234.718872	-426.024536
7431.821417	417.805389	-231.971954	-411.237854
7431.824753	413.714203	-229.458817	-396.626526
7431.828081	408.804779	-227.822327	-382.190521
7431.831416	404.830505	-225.075394	-368.338989
7431.834754	400.037994	-222.386902	-355.480988
7431.838116	395.303894	-219.756866	-342.973694
7431.841419	390.803619	-217.009949	-330.291046
7431.844780	386.420227	-214.321442	-319.478638
7431.848082	381.160126	-211.983627	-308.315613
7431.851420	376.893616	-208.360031	-297.035645
7431.854747	372.101105	-206.431335	-286.047913
7431.858087	366.724152	-203.684402	-275.936859
7431.861414	362.866760	-200.703690	-266.001160
7431.864750	358.074219	-197.781418	-256.357697
7431.868081	353.398590	-195.326706	-247.064880
7431.871412	349.132111	-191.761551	-238.707184
7431.874775	344.222687	-189.482178	-230.232620
7431.878082	340.014618	-186.209244	-222.108688
7431.881414	335.806549	-183.403854	-214.101685
7431.884741	331.715393	-180.949158	-206.094666
7431.888080	326.630615	-178.143768	-198.730560
7431.891410	322.890137	-175.046188	-191.191116
7431.894745	318.214508	-172.357697	-184.820572
7431.898081	314.649323	-169.435425	-177.690231
7431.901412	310.149048	-167.039169	-171.261246
7431.904741	305.298065	-164.526016	-165.358261
7431.908096	301.382233	-161.954422	-159.046173
7431.911406	297.700165	-159.616608	-153.435425
7431.914739	293.784332	-156.869675	-147.298660
7431.918099	290.043854	-154.999420	-143.265930
7431.921411	285.718872	-152.720047	-138.824081
7431.924742	282.504395	-150.265350	-133.096436
7431.928074	279.406769	-148.570435	-128.537689
7431.931411	275.374054	-146.641739	-123.452950
7431.934737	272.101105	-144.245468	-119.770897
7431.938070	267.425476	-142.433670	-116.673294
7431.941407	264.912354	-140.446533	-112.289886
7431.944739	261.288727	-138.810059	-108.374054
7431.948075	258.132660	-136.764465	-104.633553
7431.951409	255.561081	-135.595551	-101.243721
7431.954734	252.171249	-133.900635	-98.087669
7431.958071	249.073639	-132.322617	-95.048508
7431.961418	246.677383	-131.387497	-92.360023
7431.964736	243.813553	-129.575684	-89.729988
7431.968066	241.358871	-127.997665	-87.392174
7431.971397	238.611923	-126.478081	-85.054352
7431.974750	235.338989	-125.075394	-82.424316
7431.978064	233.644073	-123.906487	-80.086502
7431.981404	231.540024	-122.211571	-78.450035
7431.984735	229.260666	-121.744003	-75.001755
7431.988070	226.396835	-120.282867	-73.365288
7431.991401	224.351257	-118.880180	-71.670372
7431.994736	222.422562	-117.945053	-69.449448
7431.998066	220.493851	-116.717697	-67.286964
7432.001403	218.039169	-116.133255	-65.066040
7432.004745	216.052017	-114.438332	-63.604912
7432.008065	214.181763	-113.269432	-61.150208
7432.011402	212.895981	-112.509636	-59.747520
7432.014731	211.201065	-111.340729	-58.344826
7432.018062	208.863235	-110.054939	-56.649910
7432.021397	207.518997	-108.944481	-55.422562
7432.024732	205.590302	-107.600227	-54.078316
7432.028068	204.479843	-107.249557	-52.441849
7432.031395	202.668030	-106.314430	-51.565163
7432.034731	201.206894	-105.145523	-49.694916
7432.038069	199.745758	-103.859726	-49.987144
7432.041420	197.933960	-103.158386	-47.707771
7432.044735	196.706604	-102.632378	-46.772652
7432.048084	195.479248	-101.054352	-45.486847
7432.051392	194.368790	-100.937462	-44.493279
7432.054732	192.615433	-100.119225	-43.616600
7432.058065	191.738754	-98.774979	-42.681473
7432.061398	190.569839	-98.307419	-41.278786
7432.064731	189.342484	-97.021622	-40.109879
7432.068059	188.991821	-96.612503	-40.051430
7432.071391	187.296906	-96.670944	-39.291641
7432.074732	186.361786	-95.735825	-39.233200
7432.078061	185.718887	-95.794273	-38.356514
7432.081393	184.842194	-95.268257	-37.421394
7432.084722	184.257751	-94.566917	-37.304504
7432.088057	183.205719	-94.742256	-36.135590
7432.091400	182.504379	-94.157799	-35.843365
7432.094729	181.861481	-93.748680	-35.317360
7432.098058	181.218582	-93.398010	-34.908241
7432.101415	180.517242	-93.164230	-33.856224
7432.104728	179.465225	-93.164230	-33.505554
7432.108059	178.880768	-92.579773	-33.563995
7432.111386	179.172989	-93.164230	-33.271770
7432.114726	178.763885	-92.988892	-32.511982
7432.118488	178.179428	-91.936882	-31.927528
7432.121828	177.828751	-92.462883	-32.453537
7432.125149	176.952072	-91.819984	-32.102863
7432.128086	177.244308	-91.761543	-32.044418
7432.131814	177.419632	-91.819984	-32.336647
7432.135171	177.361191	-91.410866	-31.226183
7432.138506	176.718292	-91.936882	-31.693747
7432.141824	176.250732	-91.703094	-31.985973
7432.145145	176.718292	-91.235535	-31.635302
7432.148484	177.010529	-91.060196	-31.752192
7432.151806	176.718292	-90.884865	-30.700176
7432.155149	176.367615	-90.183510	-31.927528
7432.158485	177.127411	-90.066620	-31.459965
7432.161808	176.952072	-90.241959	-31.401520
7432.165147	176.952072	-90.125069	-31.810637
7432.168470	177.711868	-89.657509	-32.044418
7432.171865	178.120987	-90.008179	-32.336647
7432.175159	177.653427	-90.008179	-31.635302
7432.178555	178.004089	-90.358849	-32.102863
7432.181817	178.296310	-89.599060	-32.453537
7432.185140	178.763885	-89.949730	-33.622444
7432.188476	179.114563	-89.715950	-33.505554
7432.191815	179.699005	-89.774399	-33.914669
7432.195164	180.166565	-89.657509	-33.330215
7432.198467	181.101685	-90.358849	-33.505554
7432.201807	181.627701	-90.534187	-34.732903
7432.205159	182.036819	-90.592636	-35.083576
7432.208501	182.679718	-90.884865	-35.083576
7432.211838	183.264175	-91.703094	-35.609585
7432.215193	184.199295	-92.287552	-36.135590
7432.218472	185.309753	-93.047340	-37.362946
7432.221816	185.075974	-92.930443	-38.414963
7432.225142	186.478668	-92.813553	-39.233200
7432.228467	187.647568	-93.807129	-38.999420
7432.231802	188.699585	-94.333138	-39.466980
7432.235136	190.043839	-94.683807	-40.752777
7432.238484	190.920502	-95.502045	-41.512566
7432.241819	192.206314	-96.028053	-42.097015
7432.245161	193.316772	-96.670944	-42.739922
7432.248492	194.485672	-96.963181	-42.798363
7432.251813	195.713028	-97.898300	-43.616600
7432.255139	196.881943	-98.774979	-45.369957
7432.258493	198.226181	-99.768555	-46.363533
7432.261797	200.622437	-100.411453	-47.473991
7432.265134	201.499130	-100.995911	-49.052017
7432.268464	202.726471	-101.346581	-49.987144
7432.271800	204.129166	-102.749268	-51.272942
7432.275177	205.239624	-102.983047	-52.850967
7432.278484	207.577438	-104.093506	-53.376968
7432.281822	209.155472	-104.736412	-54.896553
7432.285181	211.142593	-105.379303	-56.533020
7432.288506	212.954407	-106.255989	-57.877266
7432.291796	214.590866	-106.957329	-59.455292
7432.295127	216.811813	-107.483337	-60.916428
7432.298467	218.740494	-108.009346	-62.494446
7432.301820	220.902985	-108.944481	-63.604912
7432.305129	223.065460	-109.412041	-66.410286
7432.308465	225.520172	-110.054939	-68.222092
7432.311831	227.507294	-111.516075	-69.332558
7432.315153	229.728241	-112.275856	-71.845711
7432.318509	232.182938	-113.035645	-73.832848
7432.321797	233.936295	-114.204552	-75.527763
7432.325128	236.332550	-115.081230	-77.865578
7432.328882	239.079483	-116.483917	-79.794273
7432.331813	241.884857	-117.419044	-82.424316
7432.335587	244.573349	-118.880180	-85.288132
7432.338913	247.144943	-119.581528	-87.742844
7432.342301	249.307434	-120.925774	-90.606667
7432.345630	252.112808	-122.386902	-94.288719
7432.348520	255.268845	-123.848038	-96.860313
7432.352217	258.074219	-124.549385	-99.373466
7432.355564	260.879608	-126.361183	-102.997078
7432.358873	263.392761	-127.939217	-107.088257
7432.362272	266.607239	-129.517242	-109.952072
7432.365580	270.406189	-131.387497	-113.692574
7432.368952	273.445343	-133.199295	-117.491524
7432.372282	276.133850	-134.485092	-121.582703
7432.375585	280.225006	-135.829330	-126.141441
7432.378873	283.907074	-137.699585	-131.284637
7432.382213	287.121582	-139.277618	-134.732895
7432.385576	290.628265	-140.797195	-140.343643
7432.388898	294.076569	-142.784348	-144.668610
7432.392305	298.167755	-144.479248	-149.987137
7432.395666	302.609589	-145.940384	-155.071884
7432.398937	305.414948	-147.635300	-160.215073
7432.402208	310.149048	-149.388672	-166.118057
7432.405581	313.772644	-151.200470	-171.202805
7432.408879	317.863800	-152.544708	-177.807129
7432.412235	322.890137	-154.531860	-183.885437
7432.415566	326.689056	-156.168335	-190.255981
7432.418979	331.072449	-157.571014	-196.451202
7432.422310	335.397430	-159.499710	-202.529510
7432.425542	340.248383	-160.785507	-209.893631
7432.428898	344.514893	-162.947983	-216.848633
7432.432204	348.839874	-164.175339	-225.264755
7432.435558	353.223267	-165.753372	-232.570435
7432.438898	357.723572	-167.331390	-240.694336
7432.442288	361.931610	-168.850967	-247.941544
7432.445616	366.957916	-170.838104	-257.175934
7432.448930	372.042664	-172.416138	-265.358246
7432.452206	377.419617	-173.526596	-275.293976
7432.455535	382.212158	-175.630630	-284.060791
7432.458898	387.063110	-177.676208	-294.113373
7432.462269	392.030975	-178.728241	-304.341309
7432.465643	396.998810	-180.130920	-315.095245
7432.468936	401.966675	-182.293396	-326.199890
7432.472287	407.168335	-183.462311	-336.720032
7432.475542	411.727081	-185.215668	-348.350677
7432.478873	416.578033	-187.085922	-361.208649
7432.482203	421.487427	-188.254822	-374.826416
7432.485557	426.455292	-190.125076	-386.749268
7432.488887	430.838654	-191.703110	-400.659241
7432.492307	436.274078	-193.281128	-414.744598
7432.495639	441.475769	-194.508484	-429.063690
7432.498921	445.040924	-196.144943	-444.142609
7432.502195	449.190521	-197.839874	-459.513702
7432.505558	453.164795	-199.184113	-474.826416
7432.508882	457.314423	-200.177689	-493.002930
7432.512220	461.347198	-201.755707	-508.958466
7432.515611	464.970764	-202.807724	-526.024536
7432.518961	468.068390	-203.801285	-542.564636
7432.522299	471.575104	-204.970200	-560.799561
7432.525536	474.029816	-206.139099	-579.268311
7432.528871	477.770325	-206.372879	-598.263062
7432.532640	479.640564	-206.314438	-616.264160
7432.535602	481.803009	-206.840439	-634.382263
7432.538886	483.322601	-206.548233	-654.253723
7432.542278	485.309784	-206.489777	-673.716003
7432.545605	488.232025	-205.729980	-693.412048
7432.549310	488.933350	-205.613098	-713.458801
7432.552243	489.284027	-204.561081	-733.447144
7432.555973	489.576294	-203.625946	-753.669250
7432.559379	489.517822	-202.223267	-773.891357
7432.562351	488.699554	-200.294571	-795.632996
7432.565601	486.712433	-198.774994	-816.381104
7432.569399	484.666870	-196.320282	-836.018677
7432.572720	482.212158	-193.573349	-857.117493
7432.576015	479.991241	-190.534195	-877.748718
7432.579397	477.828766	-187.378143	-899.665771
7432.582711	474.263611	-183.696091	-919.770935
7432.586029	470.172394	-179.780243	-941.103455
7432.589325	465.087677	-175.981308	-962.260681
7432.592662	459.710693	-171.364120	-982.599670
7432.596042	454.041504	-167.039169	-1003.172424
7432.599412	447.203400	-162.597305	-1023.569885
7432.602742	439.780853	-156.928116	-1042.798340
7432.606105	432.066040	-151.668030	-1061.909912
7432.609392	422.773254	-145.765060	-1082.365845
7432.612724	413.831085	-139.920517	-1100.776123
7432.616118	403.544708	-134.251312	-1119.478638
7432.619408	392.673889	-127.354759	-1136.953857
7432.622739	381.393921	-120.808876	-1154.136719
7432.626054	368.711273	-112.918762	-1170.033936
7432.629361	355.736420	-106.723549	-1185.814087
7432.632659	342.001770	-99.534775	-1202.003418
7432.635984	327.507294	-91.118645	-1215.270630
7432.639402	312.837524	-83.345413	-1229.005249
7432.642697	297.349518	-75.689072	-1240.869629
7432.646036	282.153717	-67.331383	-1252.032715
7432.649424	265.029236	-58.798363	-1262.319092
7432.652718	248.489182	-50.148453	-1272.605469
7432.656082	231.189362	-41.615433	-1280.144897
7432.659450	212.895981	-32.614845	-1288.327271
7432.662735	195.011688	-23.848042	-1293.587402
7432.666057	176.601395	-14.555231	-1299.198120
7432.669396	158.366455	-4.093513	-1302.938599
7432.672693	139.254822	5.608416	-1306.445312
7432.676041	119.617187	15.251899	-1307.322021
7432.679360	100.680885	25.596725	-1307.614258
7432.682736	82.036819	35.415546	-1307.731079
7432.686067	62.749851	45.059029	-1305.977783
7432.689362	44.164230	55.871418	-1303.756836
7432.692771	25.286381	66.040916	-1300.074707
7432.696148	5.882524	75.625954	-1295.048462
7432.699469	-13.462887	86.730568	-1289.613037
7432.702772	-31.756283	96.432503	-1282.541138
7432.706059	-49.699009	106.543549	-1275.644653
7432.709380	-68.167740	117.122154	-1267.345337
7432.712671	-85.058441	126.707191	-1258.403320
7432.715995	-102.241386	137.052017	-1247.707764
7432.719357	-120.417877	146.812393	-1237.012207
7432.722742	-137.074814	155.871414	-1225.147827
7432.726090	-153.673294	165.105789	-1213.575562
7432.729385	-169.102859	173.814148	-1201.302124
7432.732712	-185.000000	182.464050	-1186.457031
7432.736102	-200.429565	190.704849	-1172.546997
7432.739415	-215.157806	198.828751	-1157.643433
7432.742748	-229.769150	206.543533	-1142.213867
7432.746047	-243.445358	213.381653	-1126.784302
7432.749357	-256.127991	220.395096	-1111.413208
7432.752693	-269.687317	227.116302	-1094.873047
7432.756487	-282.194611	232.434814	-1077.748657
7432.759437	-295.344818	238.746933	-1060.974854
7432.762776	-305.923431	243.539459	-1044.317871
7432.766076	-317.612518	248.565750	-1027.135010
7432.769397	-328.132660	253.767380	-1009.426025
7432.772710	-338.419037	258.033905	-991.833984
7432.776479	-348.530090	261.774414	-974.125122
7432.779804	-357.004669	265.105774	-957.059021
7432.783102	-366.239044	268.028046	-939.525452
7432.786397	-374.012268	271.008759	-922.401001
7432.789704	-382.077728	273.755707	-904.925781
7432.793131	-388.798950	276.151947	-887.158447
7432.796413	-394.468140	278.139099	-870.033936
7432.799704	-401.423126	279.892456	-852.909424
7432.803038	-407.150818	281.645844	-835.258911
7432.806346	-412.469299	282.697845	-818.426636
7432.809635	-416.969604	284.334320	-800.600830
7432.812934	-421.119232	285.386353	-784.177734
7432.816355	-424.801270	286.029236	-768.105225
7432.819626	-428.366425	286.672119	-750.688538
7432.822959	-431.054932	286.847473	-735.551147
7432.826251	-433.801849	287.139679	-720.004700
7432.829566	-434.912323	286.905914	-704.049133
7432.832959	-437.308624	287.665680	-688.268860
7432.836291	-438.419067	287.256592	-673.131531
7432.839658	-439.821747	287.548828	-658.461731
7432.843036	-440.523071	286.672119	-643.207520
7432.846335	-441.282867	286.555237	-629.881958
7432.849613	-440.815308	285.678558	-614.978394
7432.852938	-440.581512	285.269440	-601.126831
7432.856238	-440.756866	284.100555	-587.392212
7432.859584	-440.756866	283.340759	-574.125061
7432.862888	-439.529510	282.230286	-560.857971
7432.866235	-438.535950	281.412048	-548.701355
7432.870004	-438.185272	280.243164	-535.083618
7432.873303	-436.607239	278.080658	-523.043823
7432.876661	-435.905884	277.028656	-511.471649
7432.879932	-433.977173	275.041504	-499.139679
7432.883236	-432.223846	273.697266	-488.210388
7432.886528	-430.470490	272.411469	-476.521332
